0.0,0.0,0.0,0.0
0.0,0.0,0.0,0.0
0.0,0.0,0.0,0.0
0.0,0.0,0.0,0.0
0.0,0.0,0.0,-0.013249591948085027
0.0,0.0,0.0,-0.01018661603254428
0.0,0.0,0.0,-0.04081227259311592
-0.02610076786513555,0.0,0.0,-0.008016245316603427
-0.011598607935479423,0.0,0.0,-0.010600736680442138
-0.02623642864184473,0.0,0.0,-0.012940656337280032
-0.012176610486759746,0.0,0.0,0.020226368061755696
-0.027460887608453787,0.0,0.0,-0.014627659275211624
-0.01579379474010392,0.0,0.0,-0.014387795918367354
-0.014357524928893866,0.0,0.0,-0.02911117903031337
-0.028539289514335358,0.0,0.0,-0.024447838201291008
-0.049591846938775476,-0.07212590372960462,0.0,-0.03311536316588045
-0.04624758812075183,-0.06817955485265646,0.0,-0.04348273293230073
-0.059989687929937086,-0.08011661398924562,0.0,-0.027006920988615
-0.061351644111872716,-0.08249624304932793,0.0,-0.04790989735800876
-0.010767088136125355,-0.03533568797569849,0.0,0.02587507006522515
0.03168523024927495,-0.011310373051868479,0.0,0.050221886029027885
0.0234810569287032,0.018654360064019174,0.0,0.062178940833156095
-0.0025767339765593346,-0.0497135832709987,0.0,0.02742760511894718
0.005087152344270442,-0.05244896938775513,0.0,-0.0281528196289016
0.0007649437052792675,-0.054609278787779165,0.0,-0.05616816506408508
0.04556517464200781,-0.028864890166715725,0.0,-0.027366214836405733
-0.0765044978596181,-0.08398218449118265,0.0,-0.05016150591686748
-0.06152737361153647,-0.05725228521595555,0.0,-0.019384051051216378
-0.06399170979398282,-0.03264221054836125,0.0,-0.006551637769127772
-0.000861162521826506,-0.022638738310637726,0.0,-0.018193367694168
0.0,-0.003006205744107923,-0.07491528416762162,0.05235724280048144
0.030137518450807702,0.021106148079945278,-0.0485124145534561,0.03602018528487126
0.001057732165668153,0.034203878609903246,-0.048653034318867014,0.04022857638287841
0.043857695916992165,0.01869058877882291,-0.06534755762513783,-0.007649202758026248
-0.0126289701873263,-0.05902667527912064,-0.09227661507491325,-0.03176822063570726
0.018685391777795508,-0.04483148556973598,-0.055634797795341286,-0.01759588796251372
0.0043094268476621764,-0.04094646216912949,-0.023055932153760998,-0.0150042055685145
0.012815011707785862,0.012378912542972853,-0.037950070827535334,0.021061795450420275
0.003286050595126179,0.01927634052039267,-0.034183653061224485,0.052719361462824535
0.002007639497122038,0.03548809706293739,-0.021059161110999487,0.023198122572291608
0.0402779172698087,0.013539231927869235,-0.015716466681386126,0.027890999486258287
0.05883653391896185,0.07887578374605127,-0.01173056136757889,0.012227474357443585
0.050712095381959386,0.06940477859443847,0.00817891119904388,0.02884305274499627
0.04451836468012912,0.07023521421515012,0.035300371016468685,0.026784782731524185
0.042530567489721394,0.056345647489765255,0.03243131481066329,0.02327283448131925
0.04426829277827166,0.06439796398451474,0.061198164711167714,0.03823528481833884
0.031108266769835254,0.03646388749051891,0.058339647779409545,0.004107640299064711
0.018367793780004176,0.03106512078471165,0.06633154701493715,0.00215671144633729
0.017752122408155192,0.051894451721914606,0.0715549783577743,-0.011830739056683156
-0.009242082847876927,0.07307305869989723,0.009733123713245646,-0.02387690303022678
-0.01602141267264831,0.03377209753992216,-0.012573441333334554,-0.0201472798133288
-0.04864868795567502,0.0006436172426130668,-0.04032919877559248,-0.044066436891444107
-0.07223795314601189,-0.024986772196062636,-0.012917168720836028,-0.05356592066844801
-0.06422580347950303,-0.03328052755878442,-0.014645713820313194,-0.0516169449124084
-0.03525315566195613,-0.007276209906649482,0.027953668312870425,-0.017430320789694517
-0.04458663478776597,-0.03391776247130036,-0.020837750996004437,-0.0076114816424902665
-0.07317583727687063,-0.06071427712334896,0.013372620430023206,-0.02486367584068721
-0.06492017670222677,-0.07999590511386033,-0.01614322460231104,-0.020874360655737712
-0.003430531769195317,-0.045291197125669196,0.02176298015729896,-0.012534523183923198
0.01788439535063456,-0.0480367858836272,0.005602197802197869,0.008317986388678904
0.01573772677595636,-0.05969237392522752,0.000861522713100229,0.039364840960967144
0.015296399142727738,-0.02249945819696736,0.013144011581259702,0.06686021059762068
0.05617367397645037,0.0019470690316240244,0.03307267575097925,0.05174266406779982
0.08901810756023497,0.005057260863425129,0.05721415636506188,0.043282635238167395
0.15794176394426895,0.07524870205487041,0.1538204135771143,0.11620395704316848
0.1506024112586318,0.1163761740189161,0.15407853905912805,0.11906253151156038
0.12245555485132016,0.12317750989684294,0.12390040630872776,0.0715966064722289
0.1532171045143726,0.16881137956852946,0.1396065558870849,0.10063671495081278
0.12345673522794036,0.1735518797814208,0.13449545410469196,0.03508771033521712
0.11782759899235754,0.1609305519537981,0.15248337757073982,0.021783863330066107
0.13472995896682968,0.19369126066760298,0.15320392402421215,0.05469125860526651
0.03595530240900907,0.20185644602676,0.12888660070020802,0.0027057380108228167
0.009629758878363525,0.20538009623306602,0.10895462442866985,0.005680769389479466
0.06433144213987137,0.19954822718963244,0.14521925197023977,0.020312937868854044
0.04375819182683327,0.19852161767823515,0.14094849135292728,0.012398217194570108
0.05243066825565284,0.21594576681846844,0.14336307743274293,0.051549278388859456
0.0405343577588584,0.18978864428146805,0.1630190444162307,0.05306049732494667
0.01791857918552033,0.15045521582658933,0.15269523154959563,0.008698780222423423
0.010793672552399127,0.11552680577716591,0.12116831583412442,-0.028962241111229737
0.013241967094026679,0.05475226633414825,0.1341210053652259,-0.031767135089511754
-0.0022419513542829995,0.04020197307593471,0.16125669890943958,-0.021632069806260347
0.002234736688082506,0.07015372922078057,0.20197260079301665,-0.0032005689046789893
0.004866790463378569,0.05952601231573042,0.2383860601434916,0.04538342203949421
-0.03060150342418654,0.026634392623423122,0.2048087213114754,0.007494059723890629
-0.06498937415568873,-0.03769789516243116,0.11716591371538046,-0.05473668785301652
-0.057626752949279804,-0.07357463348416292,0.10586586367073571,-0.08696039724508392
-0.07841347246231906,-0.06169168082542399,0.1277119017604987,-0.11201129115905756
-0.042872585963102894,-0.013890175273454491,0.1886371554252553,-0.034016691473452314
-0.06582237604827747,-0.0607120785452053,0.1267211610017337,-0.004088618505060795
-0.04561466265612289,-0.031196977799312242,0.16113136537953146,0.0587085457055228
-0.019593578004237687,-0.04362445724051935,0.16290079270710567,0.07179696833784081
0.008747722900974026,-0.06709466173852739,0.10996017765306185,-0.0037562400930836776
0.008400898454599043,-0.08223683991189083,0.0558454144168583,-0.014416603292278118
0.019833400231392313,-0.05330020399429822,0.05606899946813509,-0.051116452789715466
-0.040003710019789876,-0.06571006334692138,-0.014555571901977515,-0.054126562654948855
-0.08067593241695495,-0.13454970996674975,-0.09975690070827313,-0.09237435544818001
-0.0718767412403601,-0.1028363065598562,-0.03989692774354097,-0.025574028124362227
-0.09918579572195046,-0.14265584083578442,-0.09162156185855579,-0.053286612340980664
-0.06956355243900662,-0.10458997831259036,-0.08074127623602007,-0.03443220088724834
-0.033808049002962796,-0.051630694145301845,-0.08738222081267986,0.03582923423170383
0.03568656303720588,0.04044152465249027,-0.036108579185520365,0.058852830653259004
0.025530596922705782,0.039666800462784625,-0.024471991956155254,0.07682821408352289
0.047149246576495406,-0.05315049400226307,-0.06630239959815544,0.021477084606190678
0.07118008037300251,0.028737846643838966,-0.03371896630402715,0.08030882455000651
0.12705425095466052,0.01245622843115592,-0.019129346049986257,0.030231911928797036
0.04335932573558231,-0.04709478077174715,-0.08866475376223779,-0.01764591826195796
0.014036505194235147,-0.04665847098344689,-0.11062259839410302,0.003074451987018803
-0.010797117438792303,0.020633516788718883,-0.06330015834014513,-0.022180965197215807
-0.009824475765909092,0.009432147391370901,-0.044370791982991674,-0.0539506501243785
0.0787463536894506,0.0639733327602466,-0.005940422334864264,0.05612194496789876
0.019582375870069578,0.1409284438578414,-0.012583147356046273,0.08621714540455941
-0.007108411361293777,0.0831096662932564,-0.028273331387620466,0.03407361395146531
0.07156037618332604,0.13352506025549446,-0.02817891032368631,0.06309607095840619
0.09145738670612405,0.11832641189673203,0.0013606767300558475,0.014893831430371368
0.044608930859824085,0.10346902152534626,0.046496149976155615,0.0018204714926226535
0.06174745326553232,0.03483240005947982,0.07668260007768095,0.011656760302618458
0.01691646640387416,0.05503629549928634,0.096886209713852,0.002265313498864503
-0.031039540951760966,0.05573732905410438,-0.00037563152175102614,-0.03569165717629916
-0.019366691675998825,-0.008445512761020887,0.020049628032263275,-0.02925678773862956
-0.052283480860062674,-0.046842311669307045,-0.03496956177254742,-0.05107970376447372
-0.005525862899953458,0.06592874193472655,0.01572906151500636,-0.007503860342610369
-0.04215882322658217,0.04231757012376482,-0.006315373977391728,-0.009675895058972988
-0.09054620676332599,-0.04859532034362829,-0.028964495913072836,-0.061774599841804556
-0.1106590533346076,-0.05240338218675234,-0.04346551121997323,-0.059470247995802604
-0.06923433731989681,-0.08908702093648131,-0.030812881811223297,-0.09746763615838629
-0.0795582208745122,-0.10486077639850011,0.021289801419775618,-0.06715995194763717
-0.04531980286145149,-0.08352454566841334,-0.007356576492954627,-0.0038906624878424336
-0.054472545586377714,-0.059441808087696495,0.06614628116119274,0.05519975433974529
0.007588721449226261,-0.03777514301816423,0.07608147174634254,0.07206296786308103
0.05317240728596177,-0.04079591206243707,0.05845199635957475,0.07352048295792074
0.07288805307853866,-0.04246053309326311,-0.009107135309226605,0.05698550940381596
0.07801772147723615,-0.03435496759465723,0.018790557756221144,0.028998024210076266
0.08440109149485835,0.0017848943668829498,0.057621708665641105,0.003954038750197402
0.06349528419620006,-0.006083807790483186,-0.01447793967517395,0.005872899497963567
-0.014643583391803949,-0.022086213675732387,-0.06789395604044586,-0.0308887812119691
-0.03963471060407914,-0.0707778927926571,-0.009515448286541377,-0.04493957578765233
-0.013450771999621036,-0.01204701218074398,0.029760757660280353,-0.023349559483773086
-0.02956227942427248,0.02174780570127313,-0.027904356227179516,-0.035502438355731455
-0.0337983434846614,0.0491002729765089,-0.005876129580505309,0.008994896450869075
-0.04041632633548702,0.032801775680222536,-0.05920745773303653,0.003136947296599339
-0.02326020297089749,0.05470820844857465,-0.05588931316321398,-0.004128670107946847
-0.016816591873451334,0.007110666141425398,-0.07700779468585027,-0.018160515878940103
-0.014214331649557333,-0.031213920099790463,-0.08880031633925052,-0.025581386402559712
-0.03427748373927066,-0.05309733521843973,-0.088866718804844,-0.01710153391768721
-0.0480374740878242,-0.07644217107132702,-0.11411955504487646,-0.05996915676851947
-0.006685998256375881,-0.02870948428359408,-0.06995099736934313,0.019391448277475177
-0.006156601071892846,-0.047841972621327056,-0.08055333079691411,0.011336505794282168
-0.00694177586828211,-0.03413352432608334,-0.03240955469449188,0.02406042903041508
0.018695346433877356,-0.03531405903919278,-0.041183022882179746,0.05066668717948725
-0.01292756588956966,-0.02952676016353895,-0.050960839505147314,-0.03170422335958983
-0.006363093927955842,-0.02029212782487734,-0.08963378656981037,-0.017305752722883455
0.03282048205128201,-0.0331253474195805,-0.04477329813646942,-0.02233012621359227
-0.052287580679200446,-0.05145475593545711,-0.03082597826867474,-0.05163998337290159
-0.06234017883009377,-0.07596895569677196,-0.030598779182714878,-0.03929076084443362
-0.08572817475728149,-0.07974204867112177,-0.049555953783690744,-0.05773467965309826
-0.08151118544492031,-0.09284617149203457,-0.04321741074709826,-0.0656405282713166
-0.041305640916670536,-0.053699225411679034,-0.04697039653420923,-0.020483766948352713
-0.06593960244267362,-0.07169848989058247,-0.10067441905565266,-0.021078051372923096
-0.09116186964732474,-0.09007759812929801,-0.13839205292419451,-0.02814060800978251
-0.05898099724177045,-0.062358994871794804,-0.13403430898929608,-0.028377065719080195
-0.03806625379544617,-0.10516046034220157,-0.1308508420423457,-0.03604456552986278
-0.05904212719639231,-0.12871186220388975,-0.17039600543761826,-0.050776615978074285
-0.07046442004312556,-0.1508737961165049,-0.17985746605267697,-0.04436186771291095
-0.08974359647988249,-0.15443184977680896,-0.18429229335545175,-0.05250486879249341
-0.04231383057983567,-0.09933507758744554,-0.12592879473923346,-0.02540064236125661
-0.043269221261010425,-0.12387436213979676,-0.14165281557390821,-0.011849712088368037
-0.04977023736097664,-0.1373385741014471,-0.16591453353980737,-0.006745895343538699
-0.019513800735403763,-0.0742151297125037,-0.12185116426188565,0.03832831776743312
0.009931125043097596,-0.061556238867908536,-0.13284883138126444,0.0010066666441461522
0.03281503581997522,-0.04077727600673851,-0.11726766114985517,0.03163549638272034
0.024128329803913762,-0.05717926696478978,-0.14471656243042266,0.021181028392505057
0.00973148747804282,-0.051387208852996656,-0.1023269809532016,0.0036690570676215536
0.020671597091630863,-0.04263519105806518,-0.11127680213358791,-0.0013408761055062595
0.06135597808140975,0.007430070173625471,-0.08331681083084486,0.020701815106790356
0.02612851843165399,0.009516550197255495,-0.05343588717948714,0.04035623988677993
0.030282702654658638,0.005123667116853793,-0.10057560041799632,0.021380304244388006
0.01383814870279755,0.033517672570616455,-0.09950831168657756,0.024728644129059684
0.02581446314749709,0.04047565790619325,-0.11650485436893204,-0.013015152267304262
-0.012850293990815206,0.028746223894727873,-0.13012495841224223,-0.03445660380911694
-0.01835067634494765,-0.018680077881877498,-0.11615956848358722,-0.048481498323693
-0.02798258225539855,0.02352678217283655,-0.10326194510182228,-0.02140204146315695
-0.02091234130553327,0.0401749496889047,-0.10268119471741394,-0.007032956043956078
-0.027440337118449034,-0.003002045741560025,-0.07699437823995098,0.0062843338987282685
0.00578727875546458,0.029277048369137262,-0.0340813754815292,0.04992588453462153
0.0027472527472527475,0.010184855304221148,-0.03100773135834628,0.018187870402102117
0.029962944338874004,0.03460714727321784,-0.024550931004397064,0.01571489579775466
0.06941749449159368,0.0393264995898913,-0.01408158831098838,0.04628083074118041
0.03738002552845261,0.04028195008564562,-0.004070669610512504,0.009336662584554737
0.0642983281950164,0.04305858057674352,0.0508085790256309,0.05391778630136994
0.06746964575598619,0.037165456309833526,0.047035693437665456,0.04292876490443187
0.05667138142795153,0.055639969272450164,0.06104871707024796,0.03741208697505863
0.07967120000000004,0.07578068190040016,0.11183834655413227,0.059696632680470846
0.07387229324332406,0.08307690109890102,0.12691515123388003,0.024851825410248902
0.06011510338946923,0.11614855665864036,0.148233612968127,0.03907227288892318
0.07088304753271969,0.13484548723884116,0.11364648515332239,0.022911701984759027
0.028491276458173512,0.10365990503258524,0.12962547121118034,0.003958658261022857
0.031654815799678104,0.0928508068520274,0.1367560330347865,0.0019277800715865163
0.01726086474343242,0.10415974359673781,0.10084500554047122,-0.004524401815045225
0.015428380494165058,0.08609271429711533,0.11789030322695955,0.004821243568124726
0.028104748946930786,0.11046577534246568,0.12177570858461843,0.024466665677214942
0.00020112608285869913,0.08389631819455558,0.12140687770721315,0.007392435443037938
0.005624799229104082,0.0671498934129184,0.10911716325857408,0.011210998662539133
-0.0011121321964560522,0.06270842139713441,0.10551638898344903,-0.012395021867302859
-0.014582298734177285,0.01185400877308936,0.055423006141746375,-0.03967239633529268
-0.01565501432875442,0.018177998138549957,0.056019048044002,-0.020305628659862428
-0.042882856428600034,-0.01623345286687648,0.03850328758687491,-0.04364765150875991
-0.05496891236615187,-0.0280145664235049,0.04564315253017801,-0.030769239956399633
-0.045637322708966845,-0.036728856264789965,0.04329672527472535,-0.02435511302754303
-0.04394728194324965,-0.03760303677461328,0.07417798143667398,-0.017853458012040406
-0.027631608472724545,-0.03505421926585415,0.09506436469630575,0.003342036553524733
0.004418867627558751,-0.01182899557864744,0.09060471689562433,0.020676649526385763
-0.09049866704800595,-0.10237975696202528,-0.019034993149236394,-0.0663577298007641
-0.07791121671018272,-0.10827189964100795,-0.015389729349609253,-0.07762223069763646
-0.07466584012811532,-0.11425429713860165,-0.03799804540225768,-0.07765170188404286
-0.057720696066553806,-0.11714203854451713,-0.019616449315068535,-0.08471454030518809
-0.03896785375085816,-0.07529156387339471,0.0022880693210728434,0.03779331044441908
-0.022795909232850946,-0.06232526780887126,0.0006394905137498385,0.06331403258223997
-0.037139319360329874,-0.04746965442905914,0.01226201987456148,0.06206974312075677
0.03847026216685766,-0.054054003782838325,-0.04284075164481133,0.028951531734311864
0.046890915767460496,-0.05161090756834493,-0.03437109241150123,0.0047831504464214344
0.02753641770075149,-0.04908613054830283,-0.06452274602850609,-0.03014480283803161
0.007936496847043454,-0.058375144979633496,-0.08475435702662472,-0.041865933037233634
0.001304522259039477,-0.029808309883962398,-0.06544234101952799,0.00065179791466159
-0.009799723363860001,-0.028834120049789806,-0.06535290634780723,0.00573405820620999
-0.017107650439829418,-0.03716040387217647,-0.07091199419268765,0.015925282286920913
-0.0363933285260187,-0.09249029245938806,-0.10322522077746558,-0.016302551099091855
-0.02845393270583147,0.013086687873270404,-0.09063288101265819,-0.02507868825232119
-0.023393793847541082,0.007135541883162998,-0.10190893643250298,-0.04345956372052015
-0.010535621837321216,0.006884098782483926,-0.10815673622394313,-0.03545944864864869
-0.03430685013237597,-0.005700894318141006,-0.12217511848070424,0.002818489385067285
-0.014307250584200128,-0.0039134798111420425,-0.0789103916693689,0.020378551657732117
0.014702713513513481,-0.0002129953199722207,-0.06252498813848417,0.05555559054331052
0.05682075727691405,-0.003931601275830365,-0.051214623950972996,0.050661252514444644
0.051002158652489124,0.025312264248378125,-0.030109968761894233,0.06104553325617321
0.0426225943010029,0.0030293086660174123,-0.04873794427188533,0.011786555007744825
0.03340053762160348,0.012630356530575758,-0.037075749347258526,-0.0176859576210744
0.03687471737632549,0.022845791789858856,-0.03686297959768217,-0.016108331899047017
-0.009603809110678057,-0.014764965641461637,-0.044133156854157286,-0.03846150789769577
-0.033667206119036806,-0.024311553617809314,-0.052444671411986304,-0.021680530920941982
-0.022295669347037955,-0.00918916756756756,-0.046008098261684116,-0.005965238805810326
-0.04513661936225751,0.016009087350927428,-0.0779618902795558,-0.022877587892954958
-0.023729878370508842,0.007906447397334678,0.021096604479880432,-0.00264460606060606
-0.0057483624430051715,0.030926676359124522,0.03828289683675508,0.010694608953515298
-0.008348736581955877,0.02510645567018095,0.03216338977357645,-0.0020731368887477422
0.009917377410468326,0.03035418876967477,0.024480248429244945,0.01697735185383875
0.01653803803323169,0.00622067028988327,0.002282846011149998,0.018671914292963956
-0.0021822694559243375,-0.025676581870055604,-0.02588410819825662,-0.0023999236915005773
0.0,-0.03861740001317264,-0.04239717306984196,-0.01465117007053542
-0.005855695373866014,-0.046619984529137105,-0.0224877776484158,-0.018221483508532865
-0.005236129709526118,-0.016395178690488278,-0.013415536081358865,-0.010954392981162346
0.003170796011051823,-0.0048806617640128145,0.007688050268378313,0.0032805140496615197
-0.002618636058513124,-0.008890805305514256,0.01375186899749065,0.014314258289583099
0.0016269089466456616,0.017630831955922858,0.002605547686401637,0.02633913003981566
0.0075451287330278085,0.015876538562619873,-0.00882099837371979,0.010417775843452621
0.02452284649835172,0.007419530661875955,-0.0018378162162162892,0.006321547683923632
0.0315625350668192,0.029960018976031285,0.04644873888778144,0.015424963770923722
0.03366597140769876,0.041431885063929176,0.04966591148109423,0.02068223109219776
0.03487735149863756,0.03578050694404934,0.06781375546139788,0.03049704830146561
0.058199308250768654,0.057620862208843895,0.0841739735017488,0.047655159803852314
0.0664861952677032,0.07463170595457269,0.10725127961499542,0.06108595130359844
0.062079466703705885,0.06138833171545549,0.06799087857658659,0.038192222826390315
0.08935340432463112,0.09983603389292618,0.0715960039250372,0.059294419988238624
0.10838178194354676,0.1415889211632628,0.09750372514409487,0.06357897042554632
0.07617228779604744,0.1273616205591815,0.0748040392499695,0.029952320640721376
0.06750925963694344,0.11152537314342847,0.0933017160317303,0.035765378747543645
0.05158686907101616,0.1086648610354223,0.10325384283906214,0.011334251116837352
0.03289679222046483,0.1128979165125077,0.10300335781188254,-0.011178013545237628
0.020539566518091495,0.08142940078894206,0.10049590082644624,-0.015477119174347116
0.01690193841913038,0.11004992522302937,0.1276736756672661,0.009076538979118665
0.0035964522821671247,0.11827139351735319,0.12656844240985396,0.015041279836401139
0.010745238352814669,0.10461106442577042,0.13770523287710063,0.007863914051000346
0.049625078437006,0.12868657694278432,0.1754501894718774,0.06528482831826897
0.055642901537132375,0.1309110099287313,0.17137557917258814,0.04986310177809054
0.05416292969145006,0.10865289645447446,0.17253443223851342,0.03864404842615012
0.07189345934033874,0.08691242942252882,0.16803055825356122,0.044084697591775066
0.0439968717637551,0.09115060197066631,0.15813451707596052,0.0036657580944238996
0.02266339951573849,0.04981103500077487,0.15462000507228013,-0.016669780685503312
0.021749761257678316,0.018273766084965934,0.16245005007378888,-0.023125662497681134
-0.022934505338232093,0.024743641073666275,0.1552566518585246,-0.028958485876922464
-0.029241936000426624,0.028413545497103964,0.14310774990442474,-0.023787235660116493
-0.0367399764405068,0.015532854743090373,0.125885591280654,-0.021687594343691382
-0.020084081641735245,0.03116090540172307,0.14757682321072865,0.0013363879088127602
-0.030249073143370227,0.03684790116607894,0.12127780446730496,-0.0038479462389978945
-0.02462352588781232,0.0069417188789764874,0.1177555797455565,-0.011991558173283925
-0.005154648622477153,0.009394682808716671,0.1287771985535103,0.008906079121798211
0.04752286813437818,0.062030625787873064,0.17313078000430954,0.03803619565231278
0.039140465064091745,0.018140812276913266,0.14916186825457517,0.04606467273593405
0.10735717016387694,0.06528219590097399,0.20473936402546708,0.1106903701464292
0.050238283122244425,0.027321895324914188,0.13894339484306653,0.057090740192950205
0.07918876641654946,0.043904688167080166,0.13463298070124846,0.02626504753664289
0.0904942244974118,0.0517887156001939,0.14765989017310552,0.03683528434268833
0.03559776400309198,0.022161228228477322,0.07307613694420104,-0.056473459712155394
-0.0018366884180061036,0.037514317725958105,0.05647361167788529,-0.013433748088113788
0.025572341211226056,0.0686868610491639,0.09513006515910746,-0.005906076062639827
-0.04379755261646606,0.04930927761529699,0.07912387451535252,-0.026088514399225528
-0.014432205036438444,0.05111325117773703,0.06744004062681828,0.006022440470675312
-0.04966445637583896,0.012392707104047487,0.04393978047951105,-0.022909236858786795
-0.05796451888459645,0.021728632880870125,0.05937718856381738,-0.04761898632168459
-0.047252830538311995,-0.001553510079687609,0.005377424769040031,-0.05988293270843671
-0.027969453896964747,0.013720984324304549,0.023244571428571434,-0.0269847112362366
-0.0410477735546952,-0.021673248431198895,0.03901297219363086,0.003107363552938777
-0.03602116573471835,-0.026587869276218486,-0.00892938254468821,-0.0034026558581477253
-0.03766811498124667,-0.08654603624920044,-0.026913755641099553,0.016143109673381187
0.02335219463330127,-0.013524535055360533,0.013427844338452961,0.02867958298760852
0.020132296215530383,-0.034183445190156536,0.008220429475373325,0.013141847490301799
0.08334143570278262,-0.008102537763378756,0.04326655781294769,0.05652503686409256
0.07297679937573495,0.05031039562679505,0.07358656401502277,0.08488853641283443
0.07077819460037721,0.049498554614066395,0.08886977684479228,0.04959514170040473
0.09588392268808944,0.04014769250689328,0.1115921725327227,0.07060134346335585
0.12489236529605449,0.07460234251057805,0.12759020774348062,0.0551166866226807
0.08980495031284505,0.09080861869941773,0.14656339361384144,0.04481299360609577
0.10877418697303808,0.12683617119122906,0.14080072181504827,0.04909264486718694
0.06992818545909905,0.1265595332733592,0.1510381317903004,0.031501505023760173
0.045430495364939205,0.15248468049237232,0.15069428392454187,0.00825251822143507
0.03787147365652678,0.12058681267227996,0.1359623667629787,-0.0004221799996254964
0.024405018838467647,0.11114243979294501,0.08706037365286406,-0.01086316555299023
-0.005274825546411191,0.10887704649322749,0.07939436853766631,-0.019045255154874482
-0.030648462839438433,0.09876543398919381,0.0036716409097965813,-0.031221027234477703
-0.04186507966683517,0.05502396025027598,0.04075525171562582,-0.03150599739425627
-0.038006526755490835,0.062355267302881434,0.02604030425055929,-0.03134239170374944
-0.04927857481598889,0.011400322955110953,0.0032054136444736973,-0.03634964140180707
-0.07737136647834592,-0.036432586128858635,0.012044871676086255,-0.04860199544642442
-0.06555716653990454,-0.030332243359340726,0.017664909050236193,-0.0353218459681896
-0.053027686504065884,-0.0418001027658996,-0.0033305879316081976,-0.03436248789944229
-0.03283683534251076,-0.05530032282371684,0.01517648606262076,-0.014467001233105577
-0.041775691896888505,-0.07235730205408143,0.011880649992988615,0.005859196030599766
-0.04526428413520729,-0.08523437094065975,0.030790998986563064,-0.010306482141700737
-0.0075441378813196885,-0.06183406222276944,0.05689978099528021,0.00993496197674345
0.02416918362622402,-0.05602901770265773,0.08791209592702337,0.007474801805882487
-0.0024410541321665626,-0.06799563365145399,0.04439180228316511,0.004277719005796353
0.009031791825941186,-0.0561797907532367,0.04871869002833645,0.020553576134524746
0.006484158803276635,-0.04413270687876685,0.05993930083574916,-0.0005365587551421312
0.019204513901760787,-0.02464937766134267,0.07168154984556509,0.0009832841427562975
0.032703041630556005,-0.014041522273102283,0.040209817813765154,0.024560513850299618
-0.007869772849221841,-0.03244376304051057,0.027888464745668487,-0.006981731051004819
-0.03325289085761441,-0.04011712150735998,-0.02917414669346236,-0.0323013594792169
-0.03679533394219079,-0.0270072683235209,-0.06245590982307766,-0.05090198113318494
-0.06596851892258752,-0.05659527116359033,-0.08521085298500916,-0.0769571408149366
-0.038654258434963104,-0.029624268157295172,-0.07018607346985527,-0.03154858425187337
-0.0058939362593159,0.0025216048043802653,-0.052918163579052636,0.02931112289762133
-0.019460459457042247,0.008919586540832282,-0.06408311273078167,0.0429996146311593
-0.038308995162989086,-0.025395076044623308,-0.10846491365362937,0.022424571584563017
-0.024318122527635246,-0.056340574137005814,-0.11469086979292108,-0.017870485519909086
-0.007903622580952384,-0.057477436556428715,-0.11028604994876291,-0.05282067912324817
0.003354087270801834,-0.051114729059805325,-0.11563478431991546,-0.05548038891259162
-0.017032771462532268,-0.05469029668197013,-0.10779759801138132,-0.010122794823829977
-0.042220598275242514,-0.04599140039385471,-0.08809438228009557,0.010424621221321618
-0.043843031914172874,-0.05349173816328614,-0.07682257776888032,0.005216198687097834
0.0014996344268509102,-0.05484303260036184,-0.06811447520968167,0.02053487164856369
-0.01203560496689555,-0.060302883354914724,-0.0907901939371989,-0.012877577758947252
0.00588008334825322,-0.019325048186314482,-0.058666904387448496,-0.005252344628052617
0.023877746624959312,0.008656360638467756,-0.018584692339521407,0.011416162117485805
0.015339475283216782,0.0275994734566262,-0.030557797391214205,0.0035564343201952803
0.014350018354435834,0.006608339415332417,-0.023211695960876987,0.037410091127098324
0.029719794881022672,-0.01958319259791583,-0.017110968866075573,0.02904017592004867
0.012540982920748464,-0.023996355868224666,-0.015290806900223624,0.009235121527102381
0.0638849304556355,0.0395538656002649,0.013154316130864057,0.03431876244561892
0.042428814679027246,0.047763467999340344,-0.011268127347522805,0.022283827604552355
0.0173507560825771,0.03433228311205823,-0.025118485068781164,-0.0007330126510264123
0.007647113466927791,0.03199623778403745,-0.020753970301032054,-0.001294010513097163
0.0073046693055077916,0.03153111417923393,-0.024883628491911575,-0.017762166882619477
0.015026571513895658,0.03901703135386337,-0.00876881695116645,0.0019898788348387143
-0.004806396066061632,0.01585055223795746,-0.03848905951538499,-0.012745278062447667
-0.055901224203364054,-0.020028067759065404,-0.07377270038639457,-0.0309116511546974
-0.05001808158498691,0.007482004796163105,-0.053272065021235555,-0.035891343200085524
-0.05675770322313775,-0.030077268151560744,-0.048821071681533615,-0.0714027448221949
-0.05960205294950345,-0.052145486533922196,-0.04394051603256043,-0.056283060393481285
-0.06140996766275079,-0.04644225366663467,-0.020124561957346652,-0.023493448796613935
-0.0891857473297143,-0.06703652210750768,-0.06087118278348511,-0.039322070259183786
-0.050896220876682836,-0.06367965057430498,-0.08201579231045622,-0.0066102943537387675
-0.03218415654841136,-0.0633145935240856,-0.08579162987445431,-0.002657267959282843
-0.046367657301415406,-0.09692543154177508,-0.061205341433961225,-0.020440058679706594
-0.044716689665110575,-0.1111613714030638,-0.06870735600949647,-0.026065460335669737
-0.01259717535087913,-0.08004764496694747,-0.048463580264347994,-0.018201389212224632
0.0015648312958435277,-0.05219804575109547,-0.021871949050772138,0.010558595246046796
0.02180372602965854,-0.05360752609496012,-0.02376671694189263,0.029352974067373225
0.02309424556034353,-0.056237552412326704,-0.019414743404199616,0.06390562930413034
0.017169982915728493,-0.04263022276642016,-0.027455383101337605,0.02740954794359518
0.030750737589826764,-0.014038783440347435,-0.03378568149341472,0.008104618373025346
0.04070418359735983,-0.0262782255191681,-0.018992834532374065,-0.008050446324935873
0.032094098831972624,0.006610284632732118,-0.02366580282228545,-0.009564801255911968
-0.0047847473963578205,0.003050851264138949,-0.0492537233932944,-0.01125343400750018
-0.03967018505664762,-0.03168702200488997,-0.07665765895763331,-0.0409724533315082
-0.054136813367666764,-0.019920742915346994,-0.08562184770001204,-0.03304975162950284
-0.040162979430287425,-0.03180350265576861,-0.09345791729391528,-0.04451956413753071
-0.06325066957091575,-0.04568775589847076,-0.10610964772881704,-0.05111851552430378
-0.01056023302709197,0.010283525947143594,-0.08763864078482941,0.022017977537259384
-0.019604113386650506,0.033072149172854864,-0.08176556768751019,0.02659518683987448
0.0207025219918077,0.0368782709682395,-0.046121392740168486,0.05144528903486374
0.048479910140795605,0.013670480864349858,-0.03924113727234242,0.07341535594473532
0.06744867092171768,0.02386033023977356,-0.03102628913114958,0.04318604519841778
0.07711742314296684,0.019320869842538304,-0.03800324100020989,0.04974392384980064
0.09823182812772029,0.03036473553813089,-0.013559942668523227,0.02095549380905014
0.053167288206990904,0.03225495994294763,0.01776335610508407,0.026587053782623136
0.025118233602784576,0.017600499196259774,-0.009140236210037577,-0.014115176470541427
-0.005767557490796446,-0.0011588893918235519,0.005443734652170758,-0.029464201933001657
-0.017435680906187797,0.0007849489949950081,0.003838195021767622,-0.03963844308105112
-0.037324697562044255,0.026360983206524902,-0.006161339853300763,-0.04644831566106781
-0.06906259735385191,0.003235918730265061,-0.0167492860902025,-0.04669934659363887
-0.07748795854898746,-0.009702839908978477,-0.041197758269933396,-0.05269261336169399
-0.13549782302711824,-0.047358102030380475,-0.09088217252347233,-0.09676473529411762
-0.07831269337945601,-0.05208028358374773,-0.0423323265841722,-0.05609136815317738
-0.1433820168229721,-0.12726555734630296,-0.09840235367057154,-0.10694487558658274
-0.10921567647058826,-0.12659807869458892,-0.09438852597650697,-0.07266790959375659
-0.14396776784192772,-0.16202678281527366,-0.15057128598491218,-0.05579072145199357
-0.061183349069482335,-0.11765819662103433,-0.09660522980805486,-0.02898247558345449
-0.03908961913381444,-0.11654309843295481,-0.09947394262628574,0.06264113008219256
0.045153632209496336,-0.09339985023443972,-0.06587117644797863,0.059762270968938325
-0.013969933569014601,-0.11250819179881769,-0.08388217907559439,0.0872514561961479
0.06094810521327552,-0.09676179494570956,-0.0808643516436204,0.009233422903515351
-0.03554924019866557,-0.15276034999516583,-0.15374220703788874,-0.06925124653741375
0.006667456182721067,-0.14147058823529418,-0.14079668643635582,-0.0905597768142095
-0.07290102075264145,-0.15026574049599267,-0.12786590995119868,-0.08701632296434075
-0.05501859681320032,-0.10321538255433306,-0.10031346041372703,-0.053510627659574504
-0.06615435594397799,-0.08226173457047138,-0.0911664020382777,0.02613261529610692
-0.06682173679801777,-0.04200580837965297,-0.08737459505092122,0.007879433595980439
-0.044148957446808516,-0.06328190290412648,-0.11206644703890813,0.040532716630751975
0.0447336087435904,0.033295768245954184,-0.09820719360344346,0.02899856098686576
0.052871953865479084,0.014747919714418661,-0.1137172172807577,0.025355861329089322
0.0722640202029883,0.06437519403092755,-0.10808209436628632,0.04905952755360236
0.02753733811917132,-0.018466835070504953,-0.1339522571798456,0.017473567445154617
-0.017459964801155883,-0.061603864862371446,-0.17096745800882043,-0.03495363074974454
-0.014729242811483323,-0.09689481673180175,-0.1812447055949977,-0.05683295195768824
0.00912632185033557,-0.041340705406201904,-0.14919772919208021,-0.020736559919497053
-0.02512291561585207,-0.05053191489361702,-0.14240415105217635,-0.02373657894851416
-0.0746203603455649,-0.026360801997973478,-0.17509426665377562,-0.03429539409836779
-0.06998590862883289,-0.016672364965170678,-0.15578430392156867,-0.009774586128962575
-0.05108289326368183,0.004632333633638308,-0.14632948790603753,-0.04323368353884828
-0.00679114899357439,-0.013712498440907024,-0.11551254022288616,-0.01680672268907563
0.039558452616817584,0.005338122894531135,-0.07736273492459472,0.05954057665260206
-0.005624727156164777,0.021527327860246373,-0.02138275332843007,0.04703289923315648
-0.016694655462184873,-0.023260946538919226,-0.08507085248271175,0.011642674351585015
0.021097081575246177,-0.048388856961588594,-0.01670423288271409,-0.007179452991453026
-0.031122993483648782,-0.09511927641385921,-0.08177416815128574,-0.07710179032960635
-0.11527377521613832,-0.1710767543396373,-0.11771465956350521,-0.1487356189558288
-0.15988602849002853,-0.19361187253581005,-0.20850330908850456,-0.1599817762082549
-0.1517699302705767,-0.13208826558207723,-0.18555498278162535,-0.11983474105252258
-0.12810561765281203,-0.09602113725875272,-0.18361200349348844,-0.05777297135323037
-0.15348679002992727,-0.18065509387129358,-0.2145273902616326,-0.03205210423452764
-0.15312217103573783,-0.1733333445378151,-0.21510639361702125,0.0008138632553736309
-0.1488672899436654,-0.16772149554617902,-0.1896610244092557,-0.07394363588941062
-0.10866444299674266,-0.20555100214201596,-0.21879634578051838,-0.1297544443486268
-0.0008138496905337215,-0.15089332564841498,-0.14695998024226936,-0.008480239487411004
0.0015649843505476913,-0.12478629059829055,-0.13678765722392194,0.04093255680309781
-0.0008904719388057658,-0.131194698424896,-0.12655690895366792,0.10604138555016522
0.00821107809649911,-0.16925467305879888,-0.1513709460373681,0.09486913639122138
0.07630801133515869,-0.09514582736677694,-0.11619359190191633,0.07806135878026832
0.12857339449166616,-0.08011941872867008,-0.12463138859755143,0.04348952955119024
0.18330642109010833,-0.029725554356946068,-0.12201735754937172,0.030684949953081773
0.089057787724258,0.045211739413680736,-0.13359969256289853,0.07102802213543326
0.09348957968139653,0.1391752829737482,-0.08138257670931047,0.05754941153258216
0.036541927214897754,0.061684976525821514,-0.07855115061802263,0.01584732987081766
0.14846454877264226,0.0942627643523374,-0.010809590740680582,0.06263125618151669
0.10653568283411742,0.1827971707794161,-0.03088116313843979,0.09536277617348822
0.08984273883008154,0.18378960671983738,-0.021400605042016813,0.04000944129520932
0.11945653314848179,0.27615829386964386,0.06211911626816695,0.11313104713764657
0.1353777220720802,0.3313842519290014,0.057716884708896896,0.058823589589290376
0.0421528205946838,0.18816171935043613,0.008876046109510129,-0.003983225083080894
0.07382377723504358,0.1382811794942248,-0.0037607065527064756,0.0009159835546592818
0.07928387860790086,0.18207276315160723,0.02699108347364858,0.02449782527594931
0.08319104074686341,0.270760980754046,0.05567874642064131,0.04501534815513085
0.023929517926701158,0.12618052506331578,0.019029147241815317,0.02182361820693393
-0.052306398621505164,0.07162463278792904,-0.014233309886364376,-0.01761611799625074
0.05445760749983307,0.18641142136175753,0.15114468416636698,0.03446795710762422
0.14293878460713383,0.24694587076856317,0.30332246254071665,0.05095607270434962
0.16312059398582918,0.21076442447852747,0.37927290586987394,0.13697864251369785
0.08972428219406653,0.24272193869441408,0.31937921231090244,0.17803914222307207
0.07070817398613147,0.18472457049725305,0.29639998350845975,0.06112039711453144
0.09840101755562998,0.11790144129163169,0.3222506619699735,-0.01799456181140227
0.16488128195905735,0.14540881133083638,0.3559230462987672,-0.01612902242328878
0.08298626527502843,0.14775986048025183,0.46472326532253866,0.0280716028085717
0.03738876374476421,0.13932800528484848,0.5168833640179293,0.018251328888182587
0.0066876573564121754,0.16956129466046477,0.3896279587494999,0.04204416037735437
-0.004744450029543342,0.15179597693424793,0.31106768316141864,0.006497410970637667
-0.047983581670745463,0.04502370939352479,0.23529406372174605,-0.06720512321497693
-0.003970344987162396,0.02794700567346073,0.30627494509279185,-0.05714562177350746
-0.04028387604674258,0.07357712177121763,0.20904164669227318,-0.06203594116807401
-0.0868185638531187,0.10596188073923656,0.18517599432463172,-0.056708698843803876
-0.1171821947725411,-0.0461266134305851,0.13168628035897273,-0.05576165911446077
-0.11225085861419638,-0.09157248916897426,0.13275993352331172,-0.07123868852161444
-0.050650570053618706,-0.059893823760818324,0.13824711342294194,-0.004374606720662299
0.012471717557360807,-0.029059949175841735,0.2066085023162509,0.03421772896764386
0.06030255765750441,0.017956961320499988,0.20599862378511818,0.1324090914484326
0.06790956008937489,0.0437747721538806,0.1668373221746676,0.12831512727032712
0.07980621984187553,0.02518989379058472,0.17426153763506005,0.07291560091706661
0.1146163070121569,-0.0182674835445153,0.12679317611587368,0.03949911311720107
0.15428629401497881,0.010793119710700188,0.15162490883564111,0.01108541567544664
0.0778324438887936,0.0065455059931076665,0.1772166651239716,0.004876621524203858
0.02443239261633746,-0.0005959380157724484,0.15110957792517904,-0.01881826284746993
9.641411406235101e-05,0.06936717386210593,0.1175140507330483,0.01606110061638334
-0.014434760698671223,0.032808740098476744,0.061672651817608705,-0.03660974388988219
-0.039586564734527326,0.025934777087078906,0.10142010511014192,-0.043967767096649235
-0.08755266783319286,-0.019056695544639957,0.08488590189401152,-0.07413295460994594
-0.09962815425329535,0.03089183461530592,-0.016659714528740963,-0.08973492048192765
-0.05192661411168214,0.07494218966846529,-0.023492942352223725,-0.033349855516580214
-0.0502831874277012,-0.0002091850699523632,-0.060090479937057566,-0.029746192893401083
-0.0557108337349398,-0.0026468695109375094,-0.03162990079331632,0.05151876250979408
-0.028401810141460333,-0.05359550903403713,-0.036600960196213846,0.039601841600977516
-0.001725868020304637,-0.04096359154358336,0.0010180087238722455,0.00665440212940199
0.05473864022193063,-0.041829183733018305,-0.017692962638015168,0.028251511980747206
0.04839051146991709,-0.0303594062250572,-0.04807229981593501,0.010615504637996317
-0.012694492219492218,-0.08056055944857046,-0.07063693949995967,-0.017722530046852716
0.025949597153918705,-0.048335397926190404,-0.04210627156988786,-0.002847543926623631
0.005511901546270309,-0.021067227101278785,-0.021650610355534672,0.0024423018960710507
0.03330614178040323,-0.022168703614457868,0.045660689929726474,0.02464392435826833
0.033153604532622775,0.005343819732494174,0.038327883823707436,0.0534010150684152
0.0394831089696685,0.03705585786802031,0.0639516703686768,0.041815388827678025
0.03454194456030823,0.09938823869031316,0.07843753174023389,0.03979289331452868
0.05941513771432729,0.08185086654276012,0.11527122459042446,0.007097102230569909
0.07618555605755564,0.0802620495495495,0.1612192529585369,0.03868492129874682
0.047304800582584565,0.07952284189599261,0.07929702183479542,0.009985276358584958
0.02395268676055266,0.06032454771537674,0.057518006998330304,0.014155979693449146
0.014273108151318407,0.04950092686901606,-0.006747609538222627,0.008515249261334007
0.015369544486156699,0.05481540618701506,0.011606378734091207,-0.01705834013623036
0.02870255784438143,0.07224998694158903,0.027398645230082824,0.02132407717987927
0.028481981569579616,0.06130693745466234,0.029086289011004872,0.011551838993603266
-0.022365362652540664,0.06968064973702504,-0.01649342183710005,0.0011646253768960752
0.023553358991050793,0.07700147648134183,0.024944181548521568,0.018125694001873402
0.006449807656424949,0.06131358113260422,0.03895464689321217,-0.0077821009457501224
0.036587703449265194,0.052833919748661966,0.029493956626505956,0.016463608365747843
0.009930572599975233,0.03110546436088058,0.036615506087614824,0.015412911383756823
-0.01186295875876553,0.01928537407174986,0.05705586802030454,-0.014015104432104273
0.0021887704189423205,0.02811674314165758,0.13029945541052804,0.007269201130486714
0.02888711597956125,0.03885681783022053,0.12388814858347838,-0.006272811651957807
0.0028409470235027964,0.0036012605269501383,0.08415235462735456,0.010978539379474947
0.018460066423910026,0.032083018941223486,0.11415719368002515,0.02266615378411005
0.021346297562893,0.05015401569562999,0.11350408172395551,0.035894008848048845
0.05069210501193311,0.06812885221148231,0.12100222041148895,0.03693234442182339
0.06732610255495293,0.07144230552022465,0.13017385070326767,0.04938616526182882
0.05801918256612268,0.05741667294059022,0.13381501375236637,0.046393640691388884
0.059449765022138286,0.070136989529178,0.13574381101416397,0.030800266964901134
0.055996221794216705,0.08404418053337796,0.1595810833765846,0.016082173652229217
0.06480084340343235,0.07367423434989084,0.15634873565480664,0.020246558631689695
0.04271706087513286,0.08799614285998629,0.15470508263719251,0.02091188334072662
0.04343083851409853,0.07518020925344467,0.13198619414449075,0.021253882292233437
0.058400127555119016,0.1228639904534606,0.15779119629062685,0.05177502366493746
0.026296895104952277,0.09825196605113432,0.11943216604146517,0.00855530980477973
0.028457137264307836,0.09818634694115186,0.1290637703797715,0.016703314285714293
0.03424843004116201,0.08969290644142551,0.13203490519790353,0.007140439120182496
0.027518107978076564,0.10009440793022836,0.10405613449742608,-0.009522215366717829
0.03340661978021981,0.10396318264566548,0.1393816543448997,0.02798430306924889
0.006792119707144518,0.05985889851898058,0.11301507835045464,-0.00025939472097893837
-0.008586991789143213,0.059513021252281,0.13169642729331876,0.008213703675818619
-0.004285063476782942,0.02456586046699879,0.09776320769607398,-0.022660935622317625
0.010894958739386793,0.0492730757363682,0.10951884475129041,-0.005444483059689953
-0.015217032155731208,0.012894664639252987,0.08393604712721654,-0.014876327238981272
-0.028326206008583724,0.012250692797090382,0.09732447276756596,-0.029242809113774047
-0.04108891430653564,-0.005821097349297043,0.06742427211030816,-0.010012295713926795
-0.021449610237425733,-0.005362646153846126,0.08216160452907877,-0.032247069292718505
-0.01886628060315338,-0.0037442704195148058,0.07115444380028926,0.004477629420937148
0.009836658968587217,-0.022445161814865798,0.09766112649164674,0.015724435045700577
-0.027200418195178613,-0.005421906522464504,0.0922973465530922,0.008960273163943638
0.025899876630379678,0.010376100123197566,0.10958123843094182,0.032791223553042426
0.013074231795253587,-0.00847314513321298,0.08045978029451464,0.002359898527754672
0.025816145973951925,-0.0074678369098712186,0.09187908230634408,0.005653104740308683
0.03217252989369392,-0.006550437944267854,0.0967317403249886,0.026817866170284085
0.02604662962864683,0.015308735115670307,0.07608399765639376,0.004621318008067092
-0.002348269202950013,-0.016293645345222155,0.04224969184535151,0.000261588768747728
0.0007033763992778291,-0.0004391621250732625,0.024115909946438585,-0.015739851658043456
-0.055626873010301635,-0.05611158819223033,-0.009603302990545803,-0.055060807116465244
-0.025723726892221924,-0.01905179071024076,-0.006402792522973565,-0.04821531687720695
-0.030009453342803444,-0.00918721755796509,0.002950925459162627,-0.022229927837415425
-0.0470971060720766,-0.012775035372826093,-0.018521767997577203,-0.022230024114401527
-0.06610445579780608,-0.031023528646133364,-0.03621980659340657,-0.006524703335291373
-0.049603365439834,-0.04711132603404154,-0.05067919890906297,-0.024254953255483158
-0.023811616269424712,-0.033745041735648566,-0.05543279062830833,-0.009450837751396669
0.02718622613840011,-0.0033412906882627712,-0.008745081044951133,0.018601716558246873
0.01637872505919468,-0.028155755723675804,-0.01807180254091139,0.03584786196792462
-0.014622030505633694,-0.03627487792117198,-0.04444066074906929,0.013758943691770602
-0.018871306783530765,-0.05578134711877573,-0.06283261802575102,-0.017281710482118934
-0.01997623880259703,-0.07997942353125038,-0.08600596122485847,-0.05213935689703314
-0.04604657070390493,-0.11406422279635596,-0.10050166665364986,-0.0841845559032151
-0.07335734605503776,-0.1025194150686027,-0.11714264542369741,-0.06849439201486775
-0.07172472115967751,-0.07547664661236526,-0.07588266225291883,-0.03627037003114133
-0.09008450317161859,-0.06361573291555479,-0.11615774129988062,-0.0382539084465022
-0.07012305655419082,-0.080193374737491,-0.09771733805588517,-0.011826951923076888
-0.0401172101117421,-0.06562054865832563,-0.07420489595949364,0.017969947099658563
-0.03043562862182374,-0.0638928923786205,-0.07585169379123755,-0.00997911984433444
-0.00038462500000003587,-0.051719403038932917,-0.08113841330332702,0.006096941718824345
0.0007770957001582764,-0.05494403013054568,-0.09946687004748288,0.002529940718009363
-0.015396340853484663,-0.06750675189031057,-0.09897377546598253,-0.011450429061533561
0.010839010726042597,-0.0785178752274879,-0.08159681487039089,0.0026879044386656265
0.0356135361179392,-0.06278617581518438,-0.08917413930978409,0.023759147977675633
0.03549612493808802,-0.01809627265914602,-0.05371471049877924,0.05328543194492315
0.046558501421877695,-0.0014654973438358969,-0.05716509704657347,0.052316593674065555
0.05627163386178945,0.022058785888704528,-0.05968488662172373,0.05131643038725982
0.07958850897397361,0.06951925961538458,-0.05247462349837831,0.045100093958470255
0.054826265537186634,0.06148617954792177,-0.04733676268273695,0.00700333598424261
0.03121112583660486,0.023664683295336598,-0.05359809425530433,-0.01201612581222147
-0.010711256224748689,0.01896834377299258,-0.045854074233875344,-0.04116198053295648
-0.03455584319634657,0.019460932746743195,-0.06229307986324849,-0.05807790906919236
-0.04613831534044166,-0.007729055122259909,-0.0728424189428524,-0.04840776947664507
-0.04289226924491879,0.008927714484548542,-0.05553559539482027,-0.02423174286725225
-0.04243460282923841,0.02452869396430067,-0.028459318483790554,0.011587054690976746
-0.04621153043751407,0.011647132016375083,-0.043936838486612756,-0.005154090058817193
-0.06192552281056091,-0.024710396229930386,-0.09054902953283578,-0.028368084015156884
-0.05774529340160237,-0.05016752657254744,-0.12474635420814037,-0.05604185644228084
-0.055550254525634925,-0.07028096401390595,-0.12865446686605259,-0.07097929638570473
-0.06394847704487888,-0.10302249639759946,-0.11925444587190863,-0.06610387414073084
-0.08363463527373241,-0.1165841070423072,-0.11787875068693912,-0.0468131725374786
-0.05924330937483227,-0.08751480898852214,-0.06738649353338629,0.009978812720278325
-0.02782309235854098,-0.08900477149137542,-0.02567305769230776,0.024052603053641295
0.006532026855383666,-0.06936312288948691,-0.012141816769552699,0.044791464754118104
0.015925834249832092,-0.06424657008863209,-0.042102261527254624,0.04651648938877572
0.028297150933718613,-0.0336214357144892,-0.015290834892270623,0.015469092279513779
0.07725503707643462,0.0008590627333891525,0.020336713642212068,0.03483666170262193
0.04859308583933318,-0.028848928336357885,-0.03635500850128796,-0.006981307973883188
-0.008981976316825563,-0.055185491059666775,-0.04675045688298854,-0.014783192630388008
-0.09533212088557926,-0.13932967534823626,-0.11821855635069783,-0.09906635872235865
-0.11111106522451517,-0.13268733188082127,-0.12258562673576269,-0.1378981390625773
-0.08850082261632289,-0.09075611549132909,-0.11322389214717941,-0.0903059231667675
-0.06712532678132671,-0.043241619224287965,-0.09123982071536095,-0.04410881034917992
-0.08973873650830884,-0.035371400769218825,-0.10316642863854186,0.04123485417769933
-0.07040302149525735,-0.03554550176887203,-0.134906011838537,0.03849551905983368
-0.07421956472649852,-0.04547812367309972,-0.15676020427701898,0.0006530640910070489
0.027271736168249943,-0.06017963254030825,-0.14242783248206586,-0.007901390811238744
0.02544242200348619,-0.08516732290205617,-0.1665917962800019,-0.028810896662469252
0.028191965989159698,-0.07118975627895054,-0.13561493535518798,0.006178121202965028
0.018120533462295228,-0.04117473914897571,-0.10277597347299199,0.05123462417056451
-0.0075431537205810474,-0.06899259950859954,-0.10029440497393487,0.0059467453742538005
0.022049425502218466,-0.08497047410861651,-0.08418440634297247,0.035059332310442254
0.010986642010225171,-0.07971082443233629,-0.1062601809070137,-0.016091435698617672
-0.08166077480430667,-0.12910372218216354,-0.17716456093557684,-0.10513241002827417
-0.05480036854801624,-0.04418015804909268,-0.17735422631951508,-0.07505541829234398
-0.10120682935853087,-0.060840706618568434,-0.18545524746842804,-0.11516409948402599
-0.13120861062922823,-0.08609996453358122,-0.16904198169990128,-0.0966215064208844
-0.09500685859790377,-0.09681832273110677,-0.135873360909922,-0.008672525138557177
-0.11245433389643562,-0.1078050636292843,-0.13936324828792057,-0.02807576941078165
-0.03044976263288664,-0.04015760673703479,-0.07427568622460189,0.061366300085599484
0.02844587089110081,-0.03252472533449363,-0.07652368552639766,0.05931399546586477
0.0829718757256834,0.007645757834676775,-0.05299399360261451,0.10684702763862036
0.08362777188156013,-0.007551208442865389,-0.09207541513716731,0.08031934803572813
0.07956169699335046,-0.04044039848020741,-0.10875121264752834,0.005881677883901103
0.06718762158447614,-0.05329057381302335,-0.09227108748614858,0.028670968547988035
0.0492014302864523,-0.05679304158789056,-0.12186734152334153,-0.05838340244897677
0.019642614364192564,-0.04241792732937755,-0.123784130042112,-0.0013043804347825758
0.023723869491255427,-0.02033568925466564,-0.09842553913111272,0.0045234334126592465
-0.020655485516445166,0.07458368150149128,-0.06414907157656377,0.01573944727816047
0.013478239130434782,0.0641405479066236,0.01712665031366089,0.04353665458392065
0.05075021018038622,0.12179029159504612,0.053539777576553586,0.03656945047571124
0.05694610464413822,0.15173890128321704,0.052574222730786234,0.06205374864183137
0.09960830665043777,0.14603985258229846,0.03508219627227545,0.05724739050898518
0.07999571440996013,0.16521839289721024,0.039601949908914094,0.06424286924587876
0.06754523665419311,0.0786815661005264,0.035364295974572656,0.020579578340604292
0.027655224362423254,0.07375756524044144,0.038833895355161456,-0.012409483321907406
0.026276319739946874,0.008430846331866899,0.016141064375938503,-0.026055959287531738
0.02288954268982667,0.05891302173913051,0.05091694878911388,-0.018240501312894144
0.044570890731258285,0.11440868396302604,0.06934155271375775,0.03919758351432875
0.013333312977099167,0.08820636327918592,0.030215221753054758,0.042513068062827154
-0.012294678656817095,0.09692226294174064,0.034624711243807345,0.0242449571690885
0.03343621502375149,0.09327383848303775,0.04689942825115461,0.031102433403868365
0.006492178010471173,0.05568368844534791,0.034215633005904064,-0.04841103755249904
0.11558154215526083,0.14871408587108567,0.23438941138797145,0.07221777967492533
0.08540340967775417,0.1340626369382805,0.20680203583193216,0.07886946069034872
0.07652703541180012,0.14174716803332987,0.2808008885559272,0.08252863362454858
0.08376862361929746,0.11582218559944737,0.2851358180697454,0.12255512518034362
0.11631467980176147,0.11358782697201018,0.2762160290604446,0.02491807025761125
0.09497263598723656,0.10843489544185546,0.2915687274979461,0.04019292680523788
0.13712026205409095,0.12448566227836415,0.21296195524401346,0.005149944917232791
0.03372363466042154,0.1554973612565445,0.24072403326458203,0.022706171960960655
0.0385852286473468,0.14766430875401157,0.1573400901816849,0.0037473355727141045
0.020691558224968883,0.1392937823710486,0.20641302173913043,0.00909173577764771
0.030491194986261502,0.1007820987866133,0.22672113003884745,0.017291847649812078
0.0014623525651273396,0.10054240860872658,0.19761725210661818,-0.007068400671833326
-0.01109192674046595,0.10978466258984469,0.21734750346608855,-0.009561127299216807
-0.0035681517776353865,0.08422107767708549,0.1853505393562431,-0.01874037334427197
-0.030267295519117266,0.11329586621007495,0.1752882863716105,-0.03759330807458756
-0.00828625022764517,0.020234229508196727,0.17195743032389962,-0.006023510084877179
-0.01639787397779747,0.03243805622163911,0.17084942451414475,0.0036774938956742192
-0.021314884048657664,0.0007357182404950316,0.14258717225088552,-0.0008264070947973477
-0.013872382951537733,0.00139018533104386,0.11737338523392103,0.009718727040113537
-0.026477871466706028,-0.03217260644648178,0.07776080407124684,-0.027729362676361648
-0.005600963893087332,-0.015364988005545706,0.09140380656846304,-0.00796917665968999
0.021586748498518795,0.00018295516423718106,0.12469139273738863,0.004594743613306378
-0.003397327944272199,-0.016402329250608555,0.13654451308900528,0.00453491889306102
0.02967853860361886,0.02358408304498277,0.17473091911942892,0.061573378615293
0.0373092905715862,0.017028552428661213,0.15869430627580175,0.04228987879160076
0.04025912891460074,0.010882273390012114,0.11276111052844054,0.02817418587632645
0.06176221608992558,0.0261020352286211,0.12926880532882307,0.03583931236558587
0.04321329520184771,0.0387055816504251,0.1527395234621054,0.0050707141688207365
0.05360409806073924,0.05757043218913119,0.14664015370752087,0.020375647245986405
0.08365581275423052,0.0991496196776073,0.22367872793345628,0.0464412892092297
0.03549504366177231,0.06877235997530586,0.09039814519906324,0.03531087787956945
0.0265768965248998,0.061463764064555504,0.09589558532051422,0.025668206080681436
0.010409234690227075,0.04365006432641059,0.04441789671542934,-0.013978121201597617
0.009961780663523942,0.05090235860520985,0.0523633076485022,-0.03460295779791804
0.008585537035257468,0.07611670673450467,0.0414952274382514,-0.02104815255931013
-0.017103672512589083,0.04533698858715629,0.029275398295761368,-0.02304106031345519
-0.044210209720875374,0.02835709842663752,0.028545241668474636,-0.010125931143787853
-0.0498282122022644,0.018979150368719784,0.002265518844866676,-0.0259797879529779
-0.02312737374337356,0.0070277819757038305,0.03077760881442363,-0.006581834311061895
-0.013383789733204098,-0.007352888218095888,0.009550455168041393,-0.01024640941830582
0.005636274619913511,0.015925266620546913,0.026980843115732654,0.015744565304119645
0.010443194658443096,0.024103877968513706,0.050835073469015335,0.041048834377013316
-0.018814566017264986,-0.016817144180815813,0.021237520122391742,-0.01872787152105669
-0.008895214532916109,-0.032644573710713665,0.023046496261261786,-0.005622534432239123
-0.006238643874116514,-0.06555006634373234,0.02710028918605198,-0.037481372493539375
-0.029858631533355988,-0.05652922583283124,0.008355485874373786,-0.04620461217825796
-0.008924586998895484,-0.04168099866278042,0.01722089433399089,-0.0002700666137905674
-0.04107191450964338,-0.03583692876639952,0.006248851314096736,-0.01723207713574009
-0.04611774401700325,-0.032760906223842284,0.01647384498452989,-0.0007278864260618847
-0.020705824258087334,-0.04537076029936177,0.027292473579114875,-0.009470050992533141
-0.0105007899928342,-0.026146091565639854,0.01800551196660628,-0.007203988999442024
0.03484663689030527,0.011741683183449203,0.04043174167581419,0.03872144292237443
0.04935346931342203,0.04195298448377911,0.0617283668534331,0.04925790677851401
0.03331829716384606,0.013692606369945433,0.020816616997896373,0.05488142172165304
0.032602739726027334,0.009103051965112302,0.001683230023473425,0.025578231292516945
0.020759345884378694,-0.018215263714593942,-0.002580080025265513,-0.014330904067714183
0.012686201624252607,-0.043251650540660526,-0.0201903050787157,-0.04408186470117779
0.004081605442176836,-0.003421002819211302,-0.02018061550237346,-0.035294143790849705
-0.01160541606480416,0.008975049523874519,-0.023962510852578573,-0.005748668966127058
-0.009979191426226861,0.03803104219703239,-0.030011961485836704,0.01766118082542879
0.015163381263616557,0.06073573119650343,0.0007731614987429236,0.05746181708562755
0.03369591403555328,0.052498818932945,0.008629617068422947,0.05582655977849762
0.027562179755934526,0.05205476712328764,0.014352355375539342,0.024728687506292157
0.060366682630113126,0.06355272578434443,0.02870977467081167,0.02384084578283265
0.10189707593217008,0.12134587351853159,0.07046955867844384,0.04712855261616535
0.06742574394993311,0.08843537414965986,0.059977043193861386,0.026694071527055198
0.014725226215276617,0.01784771439858829,0.029798959790054404,0.004947916795518731
-0.01691133173510739,-0.006247839400344283,0.03544302957401504,-0.01960449481387706
-0.018138219151391688,8.716339869281103e-05,0.01378096326274641,-0.059190037894981826
0.0006944618236405636,0.019545405501017164,0.028826380308084418,-0.03933334166666664
-0.029535117362128507,0.011149763525557368,-0.007268596072009964,-0.020817103415835855
-0.047712730421887235,0.0544662289591057,0.008858824117238333,0.014320704182344653
-0.02775001666666661,0.053929549790322134,0.050324053829239344,0.01664339462106324
0.024531433649428128,0.05506140464439423,0.06453063300180628,0.028886207745369544
0.025148490005636282,0.029012236971241556,0.06814664477675754,0.03563868176042098
0.029452744345542996,0.01416431477662145,0.07576032598798042,0.017045410914414246
0.03218250374898074,0.01805271264680129,0.0714992776722392,0.01988514647956018
0.029022591487097852,0.012586849286115906,0.06529682191780822,-0.0165247363921698
-0.009297537558624804,-0.014810341833924181,0.04780114635707646,-0.019761498811558857
-0.0027427788247669925,-0.04615514724983239,0.06958998960829182,-0.015151523744299369
-0.008178079350998351,-0.019666674999999974,0.06702946938775513,-0.011345483004378208
0.0018739437500179628,0.015980012507040085,0.0341129336049399,0.008315482069173015
-0.007618088772795767,0.023751319169175285,0.017355085341115677,0.018769516531638632
-0.015211345746892046,0.021087469134062987,0.021176470588235352,0.007133665786569309
0.017745383321982246,0.029840406226929204,0.04996905456796678,0.009180567912109496
0.028501902528642674,0.04410726848882085,0.05574881762778684,0.006291429868438279
0.008594757345848858,0.010244438352464233,0.0652686432364327,0.0009382463483153542
0.0007650799112978002,0.009085497712959502,0.06350502430456254,0.004693659327530206
0.009437170308523113,0.0010117359327903514,0.05612884817877322,8.424865158146407e-05
0.029853292900943244,0.028449709907159962,0.05828733660399112,0.02010811912717036
0.011350076804915456,0.003131902853664295,0.017340578888154844,0.009884993777332665
0.002274233471409789,0.0,0.01805271264680129,0.010702412026609764
0.022051368519336187,0.03703385277267287,0.050086841582122614,0.01886631806115595
0.0559863665272496,0.0768160918175863,0.06086807740549755,0.02633758532942834
0.040091683340906736,0.05242801121492066,0.0038530413874477425,0.03324609681468064
0.04750273610285347,0.05720846699429157,0.03641669166666664,0.0452139262999231
0.02343881105580268,0.050586608129911344,0.06737499526755615,0.021492923687749636
0.0359462908455609,0.0471681942539781,0.07203982025951328,-0.009280188981281318
0.021514455357836075,0.037293079023724154,0.0591669648106141,-0.0073498899309894835
0.00545586504541739,0.024511421626420022,0.05508325863188114,-0.022031084135295823
-0.04285020243463859,0.0021122000497448457,0.0463126319132619,-0.04013918426802619
-0.01355652136112337,0.02931404395933611,0.039858788228003185,-0.016127686310850035
-0.005547985714851114,0.050539342974449855,0.060084015772418196,0.017523627704065157
0.004936473254026168,0.0459024413567985,0.04696061843891233,0.020965247577865217
0.024680345964331985,0.0419082746713314,0.07155026283560031,0.06061885118776794
0.036528135667754744,0.06311700171939917,0.0664465808908632,0.04304989615820929
0.02063637311443821,0.04328095711036152,0.04328095711036152,0.0037192674644242903
0.05075453966145744,0.03025540191571964,0.06840972878851731,0.00362374778547267
0.043960567563866446,0.017591995119302636,0.09575943524922781,0.0023846978763585208
0.015766469922380306,0.02596978422139126,0.07975933957472009,-0.0028573776150071606
0.0038653889515219346,0.0023317600145109246,0.059673623424631256,0.004188859386087135
-0.0055644275302601095,0.01238162984543179,0.0635945826323436,0.003771170755945668
-0.0049209858706403264,0.02117786155847176,0.06934497730032371,-0.005789016745265947
0.015224746376870846,0.036857226568723325,0.07552482505547019,0.003183968873293857
0.017331333162111853,0.04242377807507469,0.06797506681287854,0.01708645059886251
0.003172101557051576,0.06652052047449189,0.068773225170892,0.011191063328394302
-0.007004672618116858,0.03278416232482684,0.06305924265972293,-0.004945385540111992
0.002647152169191325,0.01059183376455363,0.06166648105835862,-0.008252011491327583
0.0013589048978242528,0.008777556772427095,0.05508290941422791,-0.011988358608814902
-0.00933242380156919,-0.01271864834534231,0.02865660971768441,-0.018181841897233233
0.007220526915976594,0.007540312842929063,0.0711332365010002,0.017555126252505066
-0.0037069248071069146,0.017560826627685006,0.061601833122141854,0.010640867439648996
-0.012015786561264851,0.002808360815414233,0.03314873081632859,-0.0023149517597578226
0.030861771543086232,0.019825599045608298,0.03776636600655853,0.035426804398393116
0.018401496414137103,0.01321343659667524,0.03952637091530519,0.002757200208646576
0.02833886872368968,0.03337079148497383,0.03578036417672199,0.019791062381254044
0.04404187707025465,0.03653077596372138,0.04936471635510237,0.03752596325349741
0.02229401256823671,0.03509612263469439,0.05701724501956285,0.009097962250483817
0.05509815547815081,0.05752598633282541,0.09650346121340696,0.04705788320325333
0.06689064489780831,0.05166018572710643,0.09627558405678502,0.03508763200113791
0.04276827172154253,0.060079098814229306,0.13059611221148215,0.03416370840076681
0.04957188271213859,0.07094193186372752,0.1060518659984116,0.029513769607343216
0.03501005088440962,0.06672537109729378,0.0780239489003881,0.00037517257184255975
-0.0037016735359246314,0.03129244906104683,0.040344677081655546,-0.03112339976371396
0.012560606841007666,0.05797099173842973,0.04451503073493558,-0.020134316772513903
-0.044192677402406046,0.0035449581921386465,0.011112001128851539,-0.04648208623583448
-0.06974647726853096,-0.018049390436985353,-0.0008055260254996407,-0.06967674837355814
-0.06532445643589313,0.00288040479563761,0.005696854827012442,-0.029801114176002518
-0.08854796758018112,-0.05311048741319657,-0.03433783559615913,-0.07328765174829452
-0.07372685706552383,-0.0297745382215843,-0.016954525597895245,-0.030536141224084656
-0.017571050118878287,-0.014749331600331284,0.018129263015265153,0.023218292299110856
-0.04330285585857786,-0.03053905345167042,0.0048761071922638795,0.0029519946689642224
-0.03446109611791427,-0.052169251686237136,-0.018904067506483165,0.010101034986475334
-0.018139309753794665,-0.08620946943434475,-0.03364276786195959,-0.013846145748987824
-0.005106103561707495,-0.06479675460617246,-0.016483981256534632,-0.017491341277834013
0.03145274775690432,-0.06338559000511908,-0.0071146403162055385,-0.0008750377923397876
0.032874477732793464,-0.04520963868818999,0.022525034068136218,0.03707315447154466
0.01386696366005292,-0.034875938875332885,0.029522322258137775,0.05657272307601009
0.02346674905311224,-0.0041024691678540745,0.027061603585733163,0.03175627181450526
0.05756099186991876,-0.010045601676359171,0.04734303657028278,0.0356688222240259
0.06642584722534,0.019546322470730283,0.023160571558837727,0.018187574759918217
0.057177266812604745,0.06280232938727567,0.04361939518682722,0.024479399839569555
0.03837579678942346,0.040529776305402096,0.0435269232630759,0.013679418197437692
0.010740004872060307,0.058799344472349725,0.0025659952146502114,-0.00884078245939765
-0.010957383250712428,0.030526291497975738,-0.00015715295657826362,-0.020095533565771016
-0.018809310778507258,-0.005357705725775435,-0.020028014747740262,-0.04240312459374769
-0.047509224361789344,-0.014398194371157347,-0.044497540595319456,-0.04999230256083881
-0.03772714668435695,0.01609758536585363,-0.03691146530287542,-0.030636703749762864
-0.06000154653718355,0.017489095841291626,-0.0702280992664173,-0.026321985377276286
-0.011654685043010047,0.03368081075414939,-0.033298351081396615,0.021070944567030115
-0.005661956407614168,0.02070062931051955,-0.04399708229692407,0.03470536667142261
0.00628592770376195,0.003998189150175519,-0.041392206224900946,0.024723987244583502
0.017981598827338414,-0.0013210911505100295,-0.036150955731628985,0.03704000221174952
0.04156578625398249,0.0030312372755718037,-0.0010836674497457543,0.0011637626608424156
0.008961393607903842,-0.03059658624544,-0.040334826803721115,-0.016380647809219502
-0.008553881674530125,-0.05404992092508784,-0.0355600756382768,-0.040680922270895224
-0.0321954553388109,-0.05370554420533201,0.005723951904837507,-0.029258385699882747
-0.010218393374845345,-0.027066393606293336,0.012366387820851725,-0.016737729173086503
0.001405426642945339,-0.005274125780802579,0.05321510355297123,0.017049976479777587
0.0008559645496833551,0.010607354693345243,0.04145744939271246,0.04688258141882965
-0.00612172012115335,0.016001243916369545,0.010557808234443848,0.028136232464929887
-0.015622529986082921,0.001856295369551345,-0.012568626303147081,-0.02175113895303916
-0.054289426548189516,-0.07033125931353987,-0.055365837398373925,-0.09403507212475629
-0.0448897635270541,-0.03849254419774931,-0.021676648151107272,-0.07362768906965039
-0.09512175187265948,-0.10923192129861542,-0.07923013021403684,-0.10478711620096359
-0.10089670175438602,-0.10054601639343255,-0.08192675289692286,-0.07105453325677603
-0.11802203071147672,-0.11423443585819432,-0.11069297759004344,-0.023668129380013263
-0.09246837254281823,-0.09423386095377252,-0.09543046058449814,-0.023080150682666375
-0.05743975809489468,-0.09337468206025538,-0.0906264856015393,0.01898623933112704
0.032188638743633036,-0.04892940600998259,-0.07802891946450001,0.0400659273274813
0.02274443100722731,-0.008139345530365086,-0.06174933547315473,0.07422424939661046
0.037449947744295456,-0.045130236472945916,-0.09641203676838304,0.023367705784060007
0.05741047710364208,-0.03908896712971048,-0.06509736336600762,0.04213675213675219
0.06805361304559915,-0.05528261988304093,-0.06026517817308805,0.01025601600933873
0.02087628830109464,-0.07611563816341306,-0.06631566904177746,-0.024864590309662017
0.022820495726495783,-0.0669733146332962,-0.05204372706026178,0.004617150656049008
0.03376972400566988,-0.0012083622301223983,0.0006456900622164298,0.01681295005330919
0.03430165735843057,0.08477492753636406,0.008481340810977636,0.04027729315690682
0.1391034132193566,0.13881661537865514,0.094980666478061,0.14188336039916924
0.13097674075289087,0.2010102246995297,0.06982157035631825,0.15233555865857026
0.12314293089656886,0.18012318411452938,0.0614664990982801,0.09759637608655335
0.12412690189132551,0.17753878389388603,0.043023305214623775,0.05982228610106091
0.11690487368437977,0.14828180157591395,0.04007477395046185,-0.014960556931821745
0.10235517577782278,0.16811964102564098,0.059046840936532084,-0.008919478270608192
0.06862901405403819,0.12307180855499028,0.06812057205583773,-0.010214579508898116
-0.01820326452644607,0.09322172908894034,0.08432361969458228,-0.002695021669486209
-0.019216781111680053,0.13540964232514335,0.0841683366733467,0.011895824872188494
-0.003453857973929162,0.1121955302222587,0.06872095569958991,-0.007755886555291977
0.0052402828980343645,0.10828651837944808,0.0470175360623782,-0.003044049253187991
-0.020425040537930785,0.1018260607283336,0.017959866970916984,-0.017189671091505248
-0.03856006495295332,0.09801952198578616,0.02448151506633061,-0.028465848428835545
-0.02865840034659726,0.055250837508045644,0.053975712252695894,-0.03524813040890696
-0.015763443809011887,0.04030461726194357,0.1284963658060698,-0.023532946258064947
-0.017892776340110852,-0.02107745565513357,0.11481325866868225,0.014511640583376579
-0.02153232784062894,-0.03778094435595117,0.15563492422922837,0.009817412929257823
-0.038576057779088874,-0.05129332670056839,0.11959074008482781,-0.013223236058652662
0.00626294236493241,-0.013699670404257123,0.16140689066631003,0.004804797315619264
0.005783942425446337,-0.011222504527233144,0.13539520385918882,-0.005044026122953916
-0.01765648524563966,-0.05963264885684708,0.09846157264957266,-0.031426617960258925
-0.0036607383946285228,-0.030069069269150386,0.08930208454932029,0.011928682636931722
-0.0011293307064770756,-0.004053505449230557,0.08879034885286108,0.007058770398481943
-0.008063960990821328,-0.026839223659889177,0.10493612898918406,-0.0040860243920694626
7.742060058466247e-05,-0.04793156811495045,0.05888625440826707,0.004590701693411175
-0.01609104364326367,-0.034629088729736975,0.0699075661965149,-0.007731123757892693
0.008852890167890893,0.018330475279258674,0.1220230560965573,0.004899073215959632
0.02505447323204251,0.00258760285788144,0.10086076043888619,0.0009117915556827649
0.02059096004738961,0.019108766810230576,0.0754153796882874,0.032685314594645506
0.017636502287123306,0.029743815960334742,0.07124724634046929,0.04157987188228519
0.03016259801559805,0.02077839312236106,-0.0007370181923940069,0.016950378505206996
0.014561257729368194,-0.012811794214909999,-0.050108696886527755,-0.005693031513092777
0.005939897942609669,0.010069619981272385,-0.04174021102674598,-0.02197560906059249
-0.044401094361342666,-0.03294114611005692,-0.04618953366986779,-0.05636201877167771
-0.012069310305552243,-0.015208912977938426,-0.02626073541042236,-0.04012096880657789
-0.01110024733967978,0.025910378901015343,-0.035267374482583845,0.006565394054302167
-0.029699369583784017,0.0028321800584215763,-0.027322050229088193,0.004677921994382999
-0.028836957853439402,-0.00753693135934971,-0.011559885816244666,0.033513765528176226
0.03297956206658677,0.028035276858960668,0.0004436081330869303,0.03964659422112624
0.05736205018537056,0.06792660469424053,0.01673920789957077,0.04573377873035518
0.08453016766250157,0.06595685929349447,0.029043744630948293,0.05472863349090268
0.07875528599717031,0.05302626486122744,0.07232873677767628,0.0662211532772484
0.0599923294656505,0.06087740773958531,0.06362253715171412,0.03288742196271406
0.08556603639287211,0.06667665841631044,0.0870595339439037,0.03147661620696913
0.08042232353399353,0.05369574718720939,0.08503667956973315,0.029599154777783236
0.06089723687676055,0.05870644763497146,0.08070466640510926,0.022435962497263436
0.04953584096548284,0.10474083118021099,0.0905871189903215,0.03541794631575357
0.038789986043782865,0.10076686813344499,0.11185117218352415,0.009281338705657958
0.029629659385882988,0.1346047677700411,0.09722958633776096,0.016096112571979734
0.04343164866312427,0.12047644043687021,0.10343521176043564,0.015882960308959405
0.033609892887006824,0.11490324846856656,0.14379081407435998,0.015824703816094833
0.044984844451118396,0.13479889835886177,0.13801285316911252,0.035739203359164036
0.04137932341248361,0.13525222468685885,0.12669590659384494,0.03410353533624142
0.027157707206800143,0.09851453105482996,0.12931169006654347,0.019268991026962896
0.0036924482781603186,0.04489412369835635,0.11587023378614947,-0.019931925170068
0.019438275033733615,0.06650747188849541,0.13685095514730541,-0.008744218857122765
-0.00061713638322525,0.03803426800716248,0.09307734803754063,-0.025085289146923234
-0.015578183673469454,0.03541794631575357,0.09845150681450175,-0.026439666485735102
-0.030739167696766802,0.013218991610047953,0.08077704821454963,0.00020822515820384226
-0.026757641756718117,0.022633028111814744,0.07754407265459715,-0.012756938751338034
0.02307594202822899,0.05935216873523855,0.12154297135608728,0.04343352396618902
0.06219193145454626,0.05749424087858702,0.16825706663649648,0.05749424087858702
0.04621020717276952,0.07412568286804909,0.18236196391236034,0.0699513294954338
0.051324246901185436,0.05990594299814523,0.20257433631349697,0.053130770048430476
0.07953834180935397,0.07124733496197845,0.2003074007056812,0.02729002307470133
0.10048574182571511,0.07877552380952386,0.20273033586361763,0.036267418390298775
0.09175881875871829,0.06840652543763417,0.2124265480660465,0.03022443385374922
0.04399281707141632,0.06201076787708989,0.20565008687386555,0.03615712024437336
0.03404565140198421,0.064585616688547,0.16946276948433617,0.012930508174814313
0.014398761841946616,0.08558330256761901,0.1343196136379599,-0.013747054940761162
0.021994484910622194,0.06256362429814852,0.13323204467089544,-0.014165198039919365
-0.004672871561433417,0.06689995653561286,0.10747871541931836,-0.02059706540051231
-0.03714213599265823,0.0551447350838702,0.09251579466642074,-0.035073324220382854
-0.02656762217495916,0.07300477836204934,0.08718881952475864,-0.011381068211549956
-0.04358780056650915,0.04364554802235396,0.0672664070495142,-0.03033399400559407
-0.024267005047175043,0.015321805042068476,0.0755833561354923,-0.007010167631032001
0.0014066560641939434,0.023459426409589045,0.08230244920104246,0.025738378076647063
0.003320806011132394,0.01900381458701983,0.09453816818842956,0.016104036221188743
0.005144948062738909,0.02003649641015218,0.08114274462012652,0.02930714645171616
0.04433823375023597,0.020740020351171257,0.09346502649022786,0.03277210619580723
0.015974654507006192,-0.009395926227822812,0.06863942857142866,0.0030009003639670964
0.03431248114627183,-0.011269157926697566,0.056366483572563256,-0.0003818853008600472
0.0261010308070349,-0.0020786218845623384,0.05980324905333972,0.01369249533461804
0.02496490949319731,0.014471650199960542,0.07999192734117293,0.00671009628138304
0.027496607297456416,0.032161120159633794,0.12049687760478829,0.027627456302182236
0.034743158507915387,0.03276074545656149,0.0973740007251816,0.029735739642106167
0.026276099436017223,0.052479186684700384,0.12288999852854401,0.03294831301292803
0.04080466078820185,0.07079702572798452,0.12984584404035038,0.018501221070835464
0.06431067053211065,0.08103737812176236,0.15995827231263254,0.03543332248053803
0.060342185333556134,0.1063620220327191,0.1546497987954568,0.03877073931009931
0.036815567413041525,0.07797932945515529,0.09449591858044688,0.017048628794939034
0.02707062001792943,0.05861325688332461,0.08344771667939434,0.01406729663608565
0.03741035717653751,0.0678505692326995,0.0881438034570413,0.003709303154387237
0.049740295132549885,0.09917461574139298,0.1211982239838258,0.022620321964988414
0.044220159021406726,0.07067595952131125,0.09288180071129307,0.02577501771479195
0.010290164892258365,0.07498885543290723,0.06488833945152794,0.018516236094398533
0.005178855730137127,0.07519896704490994,0.06308238008265876,0.006496971890159882
0.03394613032989522,0.08622106673955365,0.08396322385875617,0.001746335713512741
0.033655017485132416,0.0675886505175896,0.08303842002532807,0.003807233732964015
0.025749489759802433,0.06603483529854343,0.10031970973093529,0.019067928556520803
-0.006170307021317649,0.0557135477633345,0.09029951057665259,0.011074233026920262
-0.008492924699652639,0.034402720479171,0.08868733395435936,-0.016328648180106934
0.019423219619329083,0.052905162079510654,0.12744771592838147,0.004492875350306946
0.020727229534956593,0.03116965113381948,0.11473293606043658,0.001568975572525422
-0.0016851241021587895,0.022679908843386293,0.13145421184020573,0.006267246676442281
0.01873025385896098,0.04896655793118785,0.1307642667395442,0.031368129911201206
0.004300110507295229,0.04240047571048598,0.10349896256860447,0.003950090175431636
0.004275821572677776,0.021994414448485024,0.09133731722145415,-0.005221594307138701
0.013232543792725308,-0.001571622393628071,0.09744712830078628,-0.0016297962462783174
0.01574212660152645,0.024190271755175415,0.09657590194386496,0.001546508999289957
0.03846602437650244,0.0599278160693971,0.1394105898379422,0.03564197725346314
0.05389985354074763,0.0722491823270805,0.15288121325282625,0.055989680439007664
0.030815081753023138,0.04579002372688754,0.13595915515820292,0.04926537315146049
0.05473581490787694,0.06365963170557731,0.13555095082259364,0.0424910897718684
0.05791433334071892,0.054041508606926664,0.1236449660256133,0.0134085364152037
0.07153678121416095,0.07649503488537544,0.13647039242845424,0.015077847289051679
0.05410045719947121,0.0888469286912035,0.12630622522357082,0.024170728320438293
0.0344152680480678,0.07551554140629248,0.13241586544342504,0.01568929239028487
-0.014470319391034206,0.0352750113989613,0.06754417233182791,-0.016263283622378742
0.00811241869137957,0.05605349145424632,0.08000468837416845,-0.012840742640433169
0.006308678721601481,0.0506902239690754,0.10213890768878987,-0.004774332500974847
0.005678367085717905,0.05548802805661013,0.10024122255293318,-0.014744780386004226
0.007018929480017977,0.07943540443224184,0.10317695408769262,0.037211387164185386
-0.021647161721299178,0.05136425952975145,0.0497119119156143,-0.006062895014276877
-0.036456927997524,0.020244727094562816,0.044924724299765066,-0.027474966992204898
0.0030261936446291187,-5.591932353986249e-05,0.05986854562292142,-0.018857592576006894
0.011188965872913825,0.013255324348341056,0.08646219302106943,-0.008752944577988588
-0.0202246290860812,-0.0013335833675968945,0.044395375545246606,-0.0033272666408555108
-0.03168511711089923,-0.03099453736881772,0.0306919935029759,-0.009865443156909544
-0.072941429944441,-0.054082347726348366,-0.002963530779557959,-0.04134536912158604
-0.05196026671147055,-0.0698078594518474,0.001347220789485583,-0.06813474066857525
-0.0389573835972214,-0.06982427035172588,0.012818986370622513,-0.04606909911687754
-0.06637607702259637,-0.09748846116624765,-0.02933481368579069,-0.054008112851042206
-0.07631090954880429,-0.05032501064419402,-0.016825214569359516,-0.012355723133748518
-0.05597283827903723,-0.06481836219880141,-0.012398166256143844,-0.0075456770424675865
-0.02977804591133392,-0.06574355030807284,-0.018385881628635824,-0.00040823564435515827
-0.017834234551413558,-0.07619775327483554,-0.024937788289790142,0.008497893171829045
-0.017957462998934023,-0.09287877033846162,-0.020821228591224785,-0.00926477006459702
-0.026421691917556604,-0.07436368796801773,-0.026819064206645003,-0.016207933237554466
0.01322556505473734,-0.05095289409034389,-0.03173969443131825,-0.012078462712146635
0.004071680464405989,-0.049335133519614154,-0.04938829405586085,0.009672382870344533
-0.002828997499015706,-0.07778264720114177,-0.06555835707012442,0.0077431830826325985
-0.012720317052155617,-0.05858787756274141,-0.05984332911127783,0.01365923213107158
-0.012402153752619209,-0.057801211830849214,-0.08700422737961273,-0.017010247675981964
-0.01721364594206704,-0.03834946918814004,-0.09035778758673453,-0.030267376912161352
-0.01150250433144621,-0.03486199553091964,-0.10223621369853368,-0.024765068564748836
-0.02262123941434343,-0.034820653860962135,-0.10221359746367634,-0.02198582190282188
-0.017748980937372125,0.00017952722275787147,-0.09732643577617389,0.0042060447602134746
-0.02251904341250603,-0.024076489032600946,-0.0731898501099545,0.0023030606060606743
-0.05413714043978374,-0.05675726476993288,-0.11789671402346351,-0.030060648484848428
-0.04981069728219004,-0.0772552550689914,-0.137919770628873,-0.044355796334440395
-0.03448486060606056,-0.05465230110011149,-0.1266856718198187,-0.04678996449500497
-0.05296972727272725,-0.0692715710838737,-0.1557164830806518,-0.055145783796535786
-0.04302631841978041,-0.051282033923820095,-0.12183220072276157,-0.010497326127726078
-0.04852510475303349,-0.060776056473640774,-0.10863223459525449,0.005564721168361784
-0.034103276269703914,-0.061181248116882074,-0.10749799659175321,0.0026991840148035727
-0.002436884635454947,-0.05638635786528332,-0.12978312488563243,0.02169460583945359
0.024408758216825404,-0.042553174513354136,-0.09864795189780119,0.02298559596498101
0.03778798616267637,-0.0066093315283621305,-0.06402851598748018,0.039680529752722224
0.07845903873221036,0.021333357575757578,-0.017834234551413558,0.05496430903454651
0.05847432395507485,0.015878757575757508,-0.019536803130804747,0.04992171186677274
0.05810584057085046,0.016799607609369313,-0.018606019573158654,0.038641944444444465
0.05183422274213653,0.005325189812565307,0.005505673051860887,0.016270501224575032
0.05956786944821304,0.02285644507024882,-0.0017703469114102174,0.0037977687206795126
0.03302472839506178,0.04567616420728035,-0.01367355470824008,-0.001610720725770104
0.015181721222019981,0.06133803630541332,-0.020655904403783846,-0.002496131061931804
-0.020769047691216527,0.03584210703461306,-0.020769047691216527,-0.017855016834781173
-0.01825556074023258,0.05311662143596001,-0.019834421465450017,-0.02719322470576425
-0.025199043896322493,0.035741367543941784,-0.017373556402750453,-0.019898427729963794
-0.006963444662220057,0.04923910076118478,-0.014529514081029047,-0.005898415297865033
-0.014069549206205878,0.04407157743609691,-0.019806024794805394,0.01066534333619337
-0.0020914609348744663,0.04603824789370182,-0.012944039092806399,0.0148274309045628
-0.0061367851796183676,0.029691345679012392,-0.014125289848557083,0.01701008372125151
-0.009453381179169102,-0.011310681530143677,-0.017845257014461366,-0.020317643860318573
0.024550364907029228,0.0004747329581122456,0.021818218181818227,0.010912621482867403
0.038653803471435176,0.016346534314119403,0.03248485454545461,0.020119766467065935
0.019478572868615898,0.010935522730759643,0.02791884283100906,0.019723086382388184
0.013071159689837788,0.005594589796581543,0.010949571861737088,0.03364737406379776
0.013353269461077844,0.00041376210892034136,0.02327966431008385,0.003736595359314473
0.029434704507340075,0.02611290614474187,0.07298180774101874,0.00798309457629074
0.03493203692325795,0.007924225641663975,0.06974831838717796,-0.005467418972342746
-0.018208819043577042,0.003090504106399146,0.03904338131998467,-0.0203007093862158
-0.04848553035638925,-0.014948906355723216,0.037373679680458224,-0.04213195159562606
-0.016931245728468765,0.019509797109869574,0.05594847148302294,-0.026205450581146924
-0.025509072096570155,-0.013185567401178367,0.0354042878781464,-0.026718709306835838
-0.018318212333941014,-0.0038973138499658606,0.040002502816999505,0.0036247568635580526
-0.03773582554311772,-0.010538892215568883,0.03501416354578757,0.019370751904845634
-0.0439202759817967,-0.03039381967980127,-0.0016049074074074292,-0.03277117550071059
0.018425681256724974,0.031322615812686326,0.01965765415039431,0.023868862090575087
0.03325107218071287,-0.00658363559014352,-0.006112028100830117,0.008186359833071607
0.03606027367503726,0.016964070104695462,0.03358790817288839,0.04847491380794865
0.07197088631536791,0.03762488991329014,0.048971860482938896,0.09125754014908065
0.04857636644265426,0.031013197105277144,0.036781293017943244,0.03333725787949622
0.05743155841710368,0.03250014849613304,0.032927357935035366,0.043226406256301704
0.08266350678052727,0.019741439437797433,0.04636985193774061,0.010735936507936573
0.040870796762714406,0.037240663678437855,0.04545999274213509,-0.0058356883852691424
0.05654069924948652,0.06905097607111076,0.07235488250260853,0.01584391531304099
0.03849926695526691,0.1099320872326185,0.09333981639936569,0.029702982423235404
0.013371110481586465,0.06960889804085107,0.09047675062853926,0.021415110379675
0.033467291047083125,0.09341029796818585,0.07899306278718381,0.025987336718599593
0.018714611542714168,0.07145003697556013,0.06727425990690884,0.005876994568608995
0.03020954240072205,0.09174527076539363,0.08023948502994008,0.002667830176387618
0.04861229242256632,0.13762825715258264,0.10305138904204046,0.02873755435123803
0.05357139819733395,0.10594376431434605,0.14058481595440042,0.03560519377662158
0.04196311184930095,0.11929067647947111,0.11192167454608505,0.05320225280898874
0.05904057330291517,0.09333332178932174,0.11188070490795536,0.050000023835920976
0.05143583875707296,0.07246454957507088,0.11281591018873921,0.028749961956521793
0.07617976404494387,0.09965557576903983,0.13375941088828208,0.027461896294122625
0.05593132669394659,0.09019635644013863,0.1256278999143863,0.016109265396547365
0.03836955434782613,0.09108558568279601,0.11262518569400667,0.00865800874942473
0.01866550076522741,0.08235024173733262,0.12265768307214853,0.0033282530682960236
0.008428025772507503,0.06832049910576696,0.14208907232579637,-0.013102918282552934
-0.020166783023617102,0.03156963129801733,0.1449722339923911,-0.02567063295525657
-0.02197679831918002,0.03505537272137217,0.10710443662776928,-0.03103733414673225
-0.045155533985754275,0.015997361639711962,0.11090197792536813,-0.03691024680823768
-0.02372830007537666,0.04477528651685391,0.11942451936963454,-0.01629199656770176
-0.020046069507443455,0.037860322766973084,0.13307909909588786,0.008782273422986809
-0.004001653369857376,0.028043499999999926,0.16953133518204103,0.021768481019594717
-0.008040222035860006,0.0058463687422617115,0.11240951936873268,0.02525829587757276
0.025484891417514283,0.015255779510024173,0.13636632824746772,0.02344464686000626
0.03516444565536515,0.011719992732763076,0.10614718037518031,0.023553934167685336
0.03657537506805818,0.0016377675073399039,0.07422099716713886,0.0023260836894464284
0.03011241581915143,5.224994834253759e-05,0.09971303271606835,0.02154326252622654
0.02611760457442935,0.008556826905432609,0.09952497795513021,0.0094046812441056
0.02273209404245944,0.012561546242662385,0.10479130772205282,0.009497015286459073
0.05135181065083876,0.038121346231269414,0.12361089004609963,0.03987340591117902
0.030683528285782212,0.037661967135752906,0.1085555506335395,0.024012062598087126
0.032978538055617526,0.06659482543335686,0.10026683081666109,0.03039772617108388
0.04546411248531282,0.07070705259258207,0.10824108739661688,0.02460454268462837
0.05079081612185773,0.100541247596277,0.11814700393349442,0.020998173645807063
0.03862169057416444,0.07296872036904496,0.12101120224719106,0.017178957202212006
0.01240562862173381,0.046093062994030154,0.08569848400327565,-0.010608233665137287
0.001318695449001949,0.04366670451117143,0.07293477173913039,-0.004035939824074875
0.008818861281733816,0.0552977926480978,0.061467452676813424,-0.016890262953000282
-0.008789674415346295,0.030946250922647425,0.04667413961340939,-0.016638228424523324
-0.004843143932568358,0.02932579330685562,0.04138948412405755,0.007147932196466825
-0.006855469312360315,0.054430335830263556,0.05615724757303986,0.012663357437578335
0.01343093154548249,0.05559322759747036,0.05564838228908306,0.02182924775631879
0.03145105687736131,0.05153034175334021,0.06052810487353394,0.029558668539815865
0.03788874519186248,0.05913360170611388,0.07243795742110279,0.038730610526126176
0.046286024647378285,0.050212993503489796,0.09024852664541422,0.035714286071571566
0.04311481966043403,0.04338071105042274,0.08267648110008226,0.012164919274404936
0.06539597684465093,0.06162859986981408,0.1323275711532034,0.04029303949523724
0.03521412600254228,0.044092442295505574,0.11791714152441135,0.01005374358380899
-0.020472752245349037,-0.01599603544965649,0.08293695078591777,-0.04336905286746887
-0.029205068226807945,-0.017139411159850095,0.05457866830898167,-0.04182136180658055
-0.027623173088038248,0.01725725518227295,0.06414575792652366,-0.05196040060981343
-0.05341446009286645,-0.007192776893858507,0.03615984275407403,-0.05295712061392187
-0.05100638268541658,-0.01849412890836166,0.035780979234154374,-0.019386086233985463
-0.07632283828848804,-0.010702303427761701,0.019912751327559902,-0.010197838266323441
-0.040877492050323934,0.006286150449746003,0.03579629010538667,-0.0037141436343863287
0.046344870291348234,0.03671466623364019,0.09314339367689681,0.057448948979591866
0.06863148212587167,0.036396003991731804,0.09401260292275294,0.07897444154732992
0.021180485208377273,0.007128016886882116,0.05902566778642694,0.04811462081423084
0.043673459183673505,-0.0016593265493213489,0.05737615320152458,0.030528957178841347
0.06713339990321053,0.0010624939733651444,0.05132883847983702,9.651645555871305e-05
0.08355656467250303,0.027652942257297013,0.07223325760547758,0.003626271556195548
0.04685140554156172,-0.011229539184820274,0.049706999907850116,0.021330963688264162
-0.008588237245630752,-0.007151188428164198,0.03662594050422826,0.004497448225434538
-0.021853239604416107,0.03493536919491748,0.018380506341172248,-0.01099960450597846
0.005603066776671651,0.04323888523840283,0.025358385046358175,-0.02728910387542275
-0.0038130622195254476,0.02278654819956195,0.040437036658837903,-0.019345553044358917
0.005017416103988939,0.06285718367346939,0.055212289081271335,0.013821355145442
-0.014167519523961575,0.06754527180152589,0.04780195192931649,0.011512195121951285
0.0006737150977147787,0.07119310882326624,0.05972887514291229,0.016324515650307386
0.01936933072550767,0.0552141360201511,0.06184737083587251,0.027873236116137297
0.02624392195121958,0.015053604604466059,0.05232095890677241,0.009888613291527966
0.042717447427640866,0.017940614391252874,0.05498958505598284,0.028838715277777774
0.03837475746760976,0.04000786277377784,0.047421056382119506,0.017601250191389414
0.011712681961878595,0.030308936549754945,0.02859931757733489,0.00620637812833832
0.028742322530864138,0.029139376969696783,0.030232831355479845,0.013974731172645036
0.023083600816739443,0.011410145695733398,0.03937861205310188,-0.002812365291316587
0.0302682985696086,0.03849855556306919,0.02683669533999445,0.019848761251925452
0.0392622675299501,0.06404518325959081,0.056435995658020974,0.037388528299160895
0.026624205992766523,0.06839026341463415,0.10571487171127952,0.026720400273002046
0.02731567975475391,0.06246333150156411,0.10840306156237138,0.02181065088434763
0.050483964238488194,0.08646577766675602,0.11122258247673411,0.025949906840594828
0.046596594914809886,0.07171651990335948,0.13908160204081635,0.021130598243688348
0.07191871565520222,0.09972990933641972,0.1740114649708156,0.041183407155813985
0.05681183397939143,0.09675866022161535,0.17484031887163248,0.04913052628336502
0.028082683863885932,0.07314041612316202,0.13239293702770785,0.015266504478767122
0.036800282407080984,0.07938015820172716,0.09562872032120198,0.01711013214485709
0.0654154095976555,0.08559112375721613,0.10506729549511122,0.015611349296913244
0.0657633802826571,0.11512287008158206,0.15973655284370727,0.03464004239796575
0.05177825992416713,0.11415835398059461,0.14792730883777186,0.04466594042767095
-0.008770391390205001,0.05962865893010845,0.09050557787056714,-0.00457991893095016
0.017451530452087437,0.09072100900476619,0.10316629463090791,0.0018997754257398403
0.026959685265234352,0.06969412289723596,0.11087580152308377,-0.021698634810171938
0.020257133871260012,0.05964138309549951,0.12750630966529705,-0.013372012149833513
0.009153695790491414,0.06711714789302987,0.14009757073170728,0.03397632367659675
-0.012120698115255962,0.07231576828934087,0.13929618359835239,0.004568229733707028
-0.010050259431044772,0.04995488843599517,0.14074005437962556,0.007017891301644188
0.03300303573711824,0.04586583478990864,0.1208716927468628,0.007855697785072443
-0.0024995173892308166,0.014997421899598828,0.11622302276234557,-0.009669673030381033
0.004851888838188939,0.017100798185572138,0.11551410872834367,-0.004890604764720662
0.006215487093076158,0.037102936534415216,0.11295707687509564,0.002839155050180948
-0.016258788154554275,0.0125065878764612,0.09287952100238565,-0.015331914346895107
-0.02488203282156932,-0.01856650210967614,0.06543549386773208,-0.01797287605704111
-0.0046459690790852815,-0.01941007748575824,0.09347824876715743,-0.0025004396663103165
-0.028351160599571674,-0.03381314934628563,0.07648515116203698,-0.02676729627260277
0.011837855046111102,0.03609981515041091,0.09788105764556317,0.01861516195733442
-0.003707535686130243,-0.00405097407475368,0.08630252647449871,0.01671800234548173
-0.004461196027130933,0.005371712101398554,0.07544021176199796,0.003025317606961376
0.010351452769236753,0.002676156860364544,0.06247714965239671,0.023889280255830685
0.02551694631734369,-0.002652729739408381,0.06428637449938138,-0.004696797689099837
0.002247341995896839,-0.005148056495545586,0.06679542613312298,0.003461652874210591
0.024329997808004173,-0.0002581605370861102,0.04968383151808035,0.0013788004017682874
-0.01947052125483389,-0.01653104925053539,0.02857657516554435,-0.011450727310362056
-0.01869324053587433,-0.020219510406475953,-0.0055253290350463745,-0.027112860734975704
-0.015511918170355788,-0.015002629375686397,0.0018416118726791908,-0.014747727850307717
-0.021696125325938415,-0.0251372773702346,0.011032992357264812,-0.022117040157926968
-0.06100386801362842,-0.048016675783025965,-0.03611061268178073,-0.046855931022469835
-0.06821902720704678,-0.04936208448108956,-0.06701210534510953,-0.04718227398520393
-0.03777968255885586,-0.03353793701205065,-0.052297040541692506,-0.021271008775753015
-0.05391049468733662,-0.042401312722120756,-0.07478074014885476,-0.04400246529972187
-0.05952905952490572,-0.08932535592357564,-0.05645016961025048,-0.025584822266359275
-0.07160364271014787,-0.08212898964615353,-0.08584726131306494,-0.01832657332167195
-0.051482866799688456,-0.0711823675354846,-0.0661930266191826,-0.03604327942121947
-0.010416657338876903,-0.0675850095981918,-0.06508972082492126,-0.0030377797027831936
-0.012495362712927009,-0.08459889100131551,-0.08702720274664374,0.00046889535323423807
-0.04883284230091833,-0.08279430140908065,-0.08751612816346306,0.002734301390426259
-0.043266106322363204,-0.10559378069519218,-0.10582468108514106,-0.03572090402413157
-0.005157567565243542,-0.07603208500261274,-0.09130624411134904,-0.020406342925032094
-0.005940015197812717,-0.07020018582062071,-0.08900028283936007,-0.01180993510525944
-0.006958619474472253,-0.06311273744945266,-0.07716850981629991,0.006393991657620946
-0.009418319222022553,-0.055883113329660644,-0.0796156413798153,0.032233224285576796
0.004686474745777959,-0.02055921015059923,-0.06758870100546878,0.010368611947162366
-0.0007522426093510201,-0.01638285804902945,-0.06493625050706112,0.007967343260931393
0.038583681323968055,-0.03461225354820225,-0.06698936698090817,0.008502317186791744
0.031199982324440857,0.007088327545475285,-0.03561353956957799,0.019761400258775142
0.03016220240918135,0.01847338727000545,-0.07250211054657749,0.013247494854977145
0.012706717861410047,0.02196870680687746,-0.0619645505331575,0.01994920541872227
0.0242356266241203,0.019484115972203703,-0.0530851770675183,0.01797290127899012
0.004851170727657878,-0.00544786688510071,-0.07266468234757331,-0.015447924763292091
0.013832700117607007,0.009841559474335683,-0.07558991654423212,-0.008010339673967934
-0.030850481177497197,-0.016361044031237334,-0.09780074422942849,-0.034874047743094876
-0.038574057795721005,0.012027326084864813,-0.09483646544328216,-0.04277390906736188
-0.06629221005163233,-0.044113414803031936,-0.11679146490158503,-0.05849034498644825
-0.06531968876575052,-0.03907808024281526,-0.10653497756887721,-0.05968071393504209
-0.0716235458215384,-0.046902709958915385,-0.10705528898906318,-0.02485421064091183
-0.04317148865631317,-0.03933632587002551,-0.09302120284311906,-0.020155942194333653
-0.05958787933149959,-0.05476258877203877,-0.0741959233516828,-0.000887525850013846
-0.025810123068443488,-0.04102750656895194,-0.05673821680175663,0.005922475686950538
0.0003803099448563369,-0.025199193529753784,-0.058939246202293974,0.03146749276605245
0.037274409337366816,-0.03848263183761179,-0.031667081791413434,0.020667611501409246
0.03622549671751058,-0.03342231807916106,-0.015566354234493256,0.03612320371101464
0.02313499611538089,-0.037088255716286204,-0.01593432992521833,0.024138935368896622
-0.012808073215759167,-0.07408080835677491,-0.05604009144590921,-0.033073588357027256
-0.00473750493485979,-0.06378240705396346,-0.06888279587582287,-0.04135379710326469
0.0022568441857778987,-0.05197697330567982,-0.04264694830542794,-0.027052809285974144
-0.046188937025385506,-0.04062709071191004,-0.05632343312314874,-0.038421020261923344
-0.0314669164090329,-0.031374814603536826,-0.01972484364476093,0.0013760468129751988
-0.029624689570641367,0.004536031770593326,-0.039777482883494523,0.010214270536067828
-0.05125999661032867,-0.022603899370326606,-0.06079866261974773,-0.03054632886769462
-0.048063692708152014,-0.05058331436950664,-0.09511352980578841,-0.03497412280814941
-0.037485106603931305,-0.05821851461708742,-0.09526473802446633,-0.047310553022493804
-0.05453298467332088,-0.046881168574812476,-0.09907642319103617,-0.052027121271411014
-0.0525110098394678,-0.06692186961350724,-0.10520373873728446,-0.03968896302834673
-0.08117389324226232,-0.11034023844953204,-0.1327589469564769,-0.03345376424272102
-0.071758170067002,-0.10105526949224712,-0.13564902859873812,-0.02575726407906994
-0.07129870949198279,-0.12402365810562989,-0.15330081803424347,-0.047737402920161515
-0.07248318167234248,-0.13931206843023664,-0.17123348252821746,-0.05531595563428151
-0.13702860368902947,-0.1767249494146835,-0.2377138306620085,-0.1052237890692897
-0.1318215180697939,-0.16858390196683468,-0.221613621962804,-0.11336719782925539
-0.07277314429585204,-0.13677306771855358,-0.1816409909344902,-0.04121358244033897
-0.024997371808595466,-0.09057397279220826,-0.12752130649535118,0.01603022339908231
-0.035321458022873446,-0.10463286527187478,-0.1327248431260697,0.08906397829360124
0.008699467254235222,-0.08942770915595238,-0.08529732431526184,0.10639320641188962
0.06901922366649854,-0.03019590073306102,-0.05211725500182114,0.08914598138019689
0.09921200813724901,-0.049354652542171515,-0.09744144500653971,0.008765235305091438
0.11402679456234709,-0.037708593400135784,-0.09373176972116759,0.023898278624224136
0.044572985019235144,-0.04628768768768763,-0.09099883537307535,-0.007115178803036256
-0.031116435776808414,-0.07003887138663874,-0.13227360878133215,-0.07914192522276291
0.0030694913059692215,-0.022540337329982476,-0.13039346958379136,-0.006190941674812569
0.003988734282261043,-0.01512268433000591,-0.1146497268818381,-0.0028908457625086304
-0.03967508111709974,0.002827338003777056,-0.12154697690378234,0.0013029641976756282
0.03236671011187152,0.05810977272381682,-0.08929768834058568,0.07486150627615058
-0.0008565524441852523,0.11413559899389679,-0.08275995837939772,0.019890710382513586
-0.019761118778743033,0.0768130165464226,-0.10472032347165103,-0.030602363275068066
0.08673524821893014,0.08993989089123028,-0.05913453161478887,0.042073269984024435
0.08163935519125678,0.08436511726849287,-0.01385013935980332,0.041241429524205196
0.0689359627059797,0.09131771441221545,-0.022869984968688202,0.066759569224175
0.06809801487640413,0.06188009784648344,-0.03308140670222614,0.09105007854508279
0.03892684779820571,0.028324492641096415,-0.0027266916600694664,0.027575463633204244
0.045435040720102876,0.059628521776908874,0.007330924260834717,-0.014246771605064481
0.06169693245122871,0.026231219995048807,-0.012466515814269786,-0.0371673017428237
0.02143606704341452,0.06579811217802634,0.01646478202340279,-0.0034517360406091297
-0.02647269853013336,0.08956234309623422,0.013250626280392315,-0.024303817721518992
-0.018885032077799103,0.06743167213114762,0.04337140216460429,0.0011275112982271037
-0.001725868020304637,0.05583598375934652,0.03986890947269268,0.02587380335678248
0.006987362025316525,0.07829105315234176,0.08133974642605217,0.013039913894054102
0.0428454293326247,0.07038395359124813,0.13258372186165607,0.05594187972894406
0.03870631275339196,0.06686667381054437,0.18863414067253714,0.019350875792994143
-0.014466238204309778,0.07155515143503707,0.15386453501262096,-0.0161700800128123
-0.023663705732510823,-0.021123808972399835,0.06691620884464561,-0.054002432542187735
-0.11211218618024349,-0.12377488002652441,-0.0498520450263629,-0.14763119024240598
-0.1127835225712697,-0.12365650054274738,-0.0436308151323085,-0.12374447817887656
-0.09191471054073393,-0.08324870050761417,-0.02652004039413449,-0.06657013782448079
-0.09769997243365383,-0.07037971645569617,-0.04404869357543156,-0.024130934410545226
-0.06588989686399947,-0.04674044786265774,0.010101010101010176,0.07241696180330999
-0.06191852515853887,-0.053208117959480807,-0.028372611812149645,0.04023386153676895
-0.06250662272775578,-0.10156888339165097,-0.042453811996825366,-0.023366566222594663
0.028021228920419458,-0.07472751582205532,0.008142055863394705,-0.028867112346390698
-0.005158150049476115,-0.11139548707679918,-0.051475398907103787,-0.06677418279569888
-0.03809525897800919,-0.11664802976409984,-0.06732520350022138,-0.04286500275482097
-0.05915032486436854,-0.13143602913443234,-0.06343524112518714,-0.020637248653197784
-0.08236563440860216,-0.1611952262865191,-0.10215683002135206,-0.04273702652300559
-0.058181807162534474,-0.14152267258984877,-0.08411914916416628,-0.015209125300044729
0.033450469816295,-0.057887110975544956,0.00952591946750021,0.049274671318504895
0.03701620780670308,-0.01722125013287974,-0.03798128070720671,0.0703947411001016
0.09482654574459562,0.0957102848741896,-0.03991112417994209,0.11342865542201343
0.09440475369094224,0.08963778288944932,-0.04510301220181792,0.11220307579029977
0.11624407376713886,0.0676633532337756,-0.021218233502538063,0.05782318474679814
0.10206242568841935,0.02450980312059467,-0.04759490632911389,0.017306717706004983
0.09769508485205233,0.008817204301075195,-0.03833536363951135,-0.012628889053743186
0.03500113051350802,0.039449057851239595,-0.01585807023178035,-0.007679318486836071
0.0027041645009463875,0.0511395271314314,-0.05562354092813611,-0.03848155633309593
-0.031046064966724955,0.03275376258544551,-0.04442136054844553,-0.02105266280533782
-0.02966547506133961,0.06279521761959647,-0.05559537331003126,-0.016840780217437575
-0.10092317805525652,-0.0020723117422021455,-0.1184786104245171,-0.08109829150644975
-0.1046252385552822,-0.02500872901440099,-0.1531577101134814,-0.09158574190676619
-0.10807930078874427,-0.019451559383714904,-0.17751128715375042,-0.0911263169327684
-0.07897810709258747,0.01649696950395504,-0.12736039829972667,-0.058109292240010636
-0.056526409596323934,-0.04037744174212693,-0.09592721926663678,0.008998604060913584
-0.08211141522754418,-0.0858842104667672,-0.10162642712873386,0.0035625579332925037
-0.07784041799307072,-0.10482003067207012,-0.01914210079402563,0.016491371892925266
0.012228864790032223,-0.0770039990953923,0.005731316041524897,0.009898722717497295
0.02755017251573661,-0.10247904356481509,-0.04174976605482505,-0.010633432547832439
0.07923037762906293,-0.039766133766098985,-0.016230990754978632,0.06863088229485538
0.028199874362334405,-0.04785757834150501,-0.039462344086021575,0.05019990712908318
0.03521612205826812,-0.04017810791523136,-0.0023140385674930717,0.03191250357676101
0.06922256373866843,-0.025242676113570957,0.02460595249788054,0.044262129253000375
0.06736425034950048,-0.013902454654067444,0.018395950232283822,0.00531505935810131
0.05231370075937309,0.0009757589110094442,0.06383224952376702,0.03358334191014571
0.07477176788133323,0.07291185971389008,0.07068845186865705,0.027170300119612283
-0.024471266182510533,0.04619402738622528,0.02003004445883836,-0.025011099767473417
-0.0047016454785257095,0.06250004780114715,0.04183276502614321,-0.020707093064136026
-0.01667773341420661,0.02474680103867868,0.04165201776468924,-0.035741394221999366
0.02390433793819908,0.05785499723136296,0.01514151870903576,-0.005161322580645123
0.06079961382531529,0.13962839570161167,0.04175231071127019,0.09318955943676632
0.03097584683253894,0.11909245518674964,0.0017891497091923007,0.07063319893675864
0.03430109677419362,0.0963073192684596,0.011887271447239183,0.08042236415166087
0.08728720970005022,0.10701493247445894,-0.006430899017491971,0.03534375384815458
0.07918111217270889,0.06245154606248583,0.02020195576176635,-0.0037379400630866686
0.0699764469277372,0.06638307250905477,0.015348561074397858,0.0007353713470874091
0.007349762451894509,0.029379235372440436,-0.011979274632051817,-0.031084363632719443
-0.01567848646409472,0.0491368077784772,0.022653787140899342,-0.010335087061957541
0.018174135556799333,0.06751841538144716,0.05267728901922465,0.010109442734010826
0.00311878567171662,0.045055733888102883,0.04607545633294571,0.01291198797161478
-0.005010992744430711,0.024838688172042937,0.09956158283341007,0.02263949643689363
-0.0224074420763139,0.06469926367081194,0.11388201061491532,-0.01054852287293704
-0.043879906699981035,0.024406679815243203,0.08843214627151035,-0.06025584111134642
-0.013626577691842516,0.03257330150031792,0.05812618755039786,-0.0472587635456267
-0.033649809061714976,-0.00983566828260929,0.04745028638749471,-0.03882065971714737
-0.04013618531028037,-0.0340566822563945,0.10081643353883725,-0.008208997605255942
-0.0659135779026547,-0.0531568956159913,0.05960497436174417,-0.010430445532928186
-0.05865068846187571,-0.06726271821888527,0.02256670897120372,-0.024040019580115417
-0.05053310072921864,-0.07025788631111937,0.029238403203956924,-0.027835421593325863
-0.007795333601332116,-0.058155228498860706,0.0006644336322541371,-0.02859288432326014
-0.015664113999782518,-0.050073524037927274,0.01298551409413387,0.00399424178389795
-0.022050048880580164,-0.038733917555812764,-0.010492655064141257,-0.0014490080088161953
-0.04794151400560598,-0.06571732914396648,-0.019809661135351292,-0.005501886492294778
-0.026739111064211025,-0.09492361937522956,-0.033814296356269535,-0.029323911829459613
-0.039344616146404075,-0.10674677389878268,-0.06650059424887683,-0.04751901972635686
-0.028183191740022154,-0.09191055695961708,-0.06935480645161286,-0.033932281903439256
-0.051565827656329735,-0.08624737464027595,-0.027128252602230514,-0.032290854691204664
-0.05635980895921776,-0.06247258316924489,-0.03959065168864459,-0.026561810002715267
-0.018863646338370177,-0.04383768084412059,-0.01269231733901292,0.01983988815779345
-0.01998415942192604,-0.05250516261865332,-0.061824407538621076,0.0028885036549334375
0.03351576569179479,-0.025475599542895865,-0.05866466740036681,0.057752946654450486
0.03875155960664668,-0.006657028957850729,-0.05946005758041693,0.0484834295407358
0.04771804571745657,0.010699944151806357,-0.05728248139551967,0.031626825218957405
0.03838526471106369,-0.0006736806798490285,-0.07088423561035356,0.025345586681604103
0.04040282281769316,-0.016930474153021745,-0.07410110705891942,-0.020075092871162915
0.02343568774890353,-0.005856989852071869,-0.05563723376785153,0.004802859430390395
0.05253453735479702,0.019756725963019327,-0.019742446987417814,0.0074989082487868335
-0.00110308841371778,0.022468081743253925,-0.04472578972386752,0.01752806741573026
0.02915223979841661,0.05038757352499354,-0.0493190167007639,0.03714546542753113
0.011138089986766651,0.06381250577068091,-0.04974604725351941,0.019230802792694682
0.024943831460674117,0.05395722516612729,-0.04291257041050402,-0.0015323992827014153
0.043561494532259964,0.08167075115704996,-0.011620511355420825,0.023741177644460675
0.054579858321252325,0.11102007390818676,0.04161177993825696,0.02962886943378406
0.03185196987902843,0.07246865591652664,0.025454117263134957,0.028138236925766415
0.03842759581333042,0.08341011232453528,0.026525488194242098,0.030914272846807003
0.03874538787438008,0.05570256758426787,0.028807911736084105,0.03235896917656099
0.053440875702020295,0.0788562166743685,0.07167423959860995,0.018129998372615235
0.03803991407542311,0.04422146007940009,0.05539457138436736,0.004455341183473288
0.04044871147070123,0.08382021348314603,0.08309006474489258,0.025733708786327983
0.03257084328330842,0.10265649944423677,0.08398800208073469,0.023508515552277877
0.03956723367669139,0.08937306680050101,0.08299261980313007,0.014597826466417916
0.03392175633856057,0.06425133467325597,0.08527745664817306,0.02682438426815103
0.021209894694492724,0.07928445404780163,0.10353390538557082,0.013269738889381532
0.0,0.04829603916101623,0.10111713291020144,-0.013985330890009473
0.03178788611705795,0.06554689572370158,0.13354211315600142,-0.003061255102040855
0.01876423407385695,0.07728563826698498,0.13541298201919183,0.010696225114793087
-0.012658207560822862,0.04325317703864931,0.1284564476543746,-0.010435819734721128
-0.006530602040816358,0.026246420588813515,0.14018037405059572,0.007971891830288487
0.012650375008216341,0.044446824369793844,0.12013648190815736,0.007778935755750331
0.020462451820389846,0.06061247277102853,0.14907827825766315,0.0149587976480756
0.024433182500597648,0.03385224149882187,0.09144046585305683,0.023056203235564482
0.012282548995370025,0.02391558231351414,0.10465769132869081,0.015817594332194016
0.011397191759352547,0.04963562045336102,0.09605204014115566,0.009445460181245856
-0.02253928843528437,-0.01990460315057636,0.062247202247191054,-0.05213552340355969
-0.023418231065959045,-0.029399724677416576,0.07023870194681227,-0.03911061260567803
-0.05037577747690203,-0.04591836734693878,0.03935083414129433,-0.054600625791696146
-0.06256264412598044,-0.03836267494509896,0.023423806661298122,-0.059261485655111065
-0.07417884004584659,-0.06271738413581718,0.011594556351469927,-0.030992172297523105
-0.05551059543962395,-0.032922581340618325,0.013783427542689658,-0.01756413509541147
-0.07837811729930698,-0.06243602034092178,-0.0009816119319095175,-0.020320877005347602
-0.04030038036492095,-0.07672732502474795,-0.005371607044819041,-0.029625636363636403
-0.0484854954041755,-0.06461951959657238,-0.024161342079186087,-0.012444056189891327
-0.018181786096256643,-0.057107620613109825,-0.032360070653734384,-0.01723585195435809
-0.03465238502673797,-0.08328252166648911,-0.04253734091027926,-0.014628777611982037
-0.012553236409199479,-0.09304190080292565,-0.0380689277108792,-0.002975906437476919
-0.020554607834081678,-0.075391604104849,-0.04409153739516805,0.011274422335863616
-0.014628777611982037,-0.08736096891079942,-0.06553467504025985,-0.016775609473564
-0.017414316629086806,-0.10302844454199062,-0.05850670485781599,-0.01229780606475058
-0.016248491032955736,-0.05859954454622868,-0.07733774701780784,-0.016139719391330045
-0.028867112346390698,-0.06236853045080913,-0.08993463750443685,-0.025576522583375717
-0.01739419416365616,-0.05144382887700527,-0.09499997959183666,-0.01739419416365616
-0.018792803656785317,-0.05069516577540107,-0.08711303855457041,-0.0043746493690488145
-0.018799880179251903,-0.02008518698739009,-0.08154288073547941,0.0086516516853933
-0.013848880703547957,-0.04710418383024585,-0.07847597384722947,-0.0015703869529918864
-0.019854233990931346,-0.046069880918556315,-0.10562948123734327,-0.014770605146677116
0.007640449438202324,-0.011572831095354308,-0.08741220374719251,0.010365006526250492
-0.0004486932036188146,-0.015032607328035727,-0.07868072706078652,-0.007352077777166536
0.004510023576276302,-0.029520772455748225,-0.08494253199524923,0.0008987079901424924
0.018589476823130318,0.0016618878426348876,-0.08175904003411574,0.034676208560638855
0.00980288547854131,0.002100409043780825,-0.09113691780904186,0.010816257805530706
0.005842006384855531,-0.021423095888580043,-0.095199578429497,0.004713253229567428
0.02105749671746948,-0.011522279824456505,-0.09787665120573005,0.0014592547517905045
0.004460325602140794,0.010431856187731691,-0.09367136627096666,-0.003650060672489379
-0.0010100325327119378,0.00022468539325846737,-0.058388025614681344,-0.017981301313153827
-0.0031428669050563903,-0.003813841754036164,-0.06594450849927412,-0.008042008355210755
-0.023670024392433354,-0.004735652165167425,-0.05593586096256681,-0.010647881521543502
-0.028350799153871033,-0.007661108434855677,-0.05796789304812842,-0.02220248618555759
-0.008265363657604864,-0.01091674315194641,-0.03078266531183635,-0.002583644211985312
-0.00986331528958397,-0.007527311368895383,-0.05427692734067329,-0.005292219463849035
-0.02697602071545239,0.0030900092615017785,-0.043122228015769155,-0.007023847525450839
-0.0107840825921395,-0.018064250669045646,-0.029428027242542946,-0.00022711171146431325
-0.028825560833815055,-0.032095174143247925,-0.046645307321263284,-0.028606836033260138
-0.008156723965902024,-0.01728581287622906,-0.04629629478334549,-0.008942642469669066
-0.02622621420921391,-0.051321831597308604,-0.049745234882667036,-0.02144900122192806
-0.035139125631950346,-0.05493661213598201,-0.052951592449166286,-0.027140586580526455
-0.03678967791667095,-0.04959234948723728,-0.06995302371741226,-0.013449321739130443
-0.010610393368844468,-0.028020622864597368,-0.03922004123155242,-0.009480319492393478
-0.040540541461288625,-0.06205599329360576,-0.05227149630349981,-0.014923621834800853
-0.01101445797101445,-0.04178829617349908,-0.04157299999999996,-0.004318839834687552
-0.034380375749387466,-0.04808013845468153,-0.05171061016913939,-0.006463685813312244
-0.01818815500250055,-0.045995220776998635,-0.05051305557530611,-0.02894374966623905
-0.005135928682991335,-0.032356936140850646,-0.039770154579311566,0.008758492336572152
-0.021624116658790292,-0.06239442434514674,-0.07263002359240363,-0.024032859647144487
-0.04981548604917562,-0.06724014341137166,-0.07426131728432046,-0.025313448955364963
-0.04722450105869336,-0.08157446476726835,-0.07873652135739949,-0.04405651400138357
-0.08640096999762117,-0.11503518317136445,-0.13102140945584298,-0.08565062469844087
-0.0852850593176597,-0.10342026666666675,-0.13219614934130686,-0.07111108708708717
-0.09642563943030087,-0.1308967059658468,-0.14591986287663544,-0.07657774085976359
-0.1045406862182089,-0.11017835292684003,-0.1558456296495685,-0.051925465838509405
-0.09717712912912913,-0.12267998418769667,-0.1708769736155108,-0.03554466829205705
-0.11177184194728532,-0.13985185755561666,-0.18250862484651648,-0.05353678899426366
-0.0453416397515528,-0.11381460892741453,-0.13864607555877517,0.009988198711431133
-0.002438111125369009,-0.07989111326526484,-0.13698938416986264,0.018605843815513716
0.01564721283726348,-0.07924972757621122,-0.11772631266208647,0.04497068680305023
0.014456644208523911,-0.08694108011661836,-0.13084107940189332,0.05465227340750721
0.0015723532494760707,-0.09226929215377368,-0.1340205664672221,-0.005335016404294408
0.02102173916861419,-0.09961286754853214,-0.1287466364953079,-0.012863391120745847
0.03962281624203251,-0.08600605405405407,-0.14303418016630054,-0.031194359164828687
0.01080028655303293,-0.05728157627957332,-0.12067009828707705,0.0063479464607346416
-0.05119624520700399,-0.08372668322981366,-0.15847118862587134,-0.03506017699999545
-0.0289025206404059,-0.021301206210701952,-0.1338860012238473,-0.006124589682684072
0.001425067977067767,-0.00038793481474356427,-0.10376808115942024,0.015902313886309107
0.04565669686926486,0.050466607988782226,-0.08703601072406585,0.028964984552008237
0.03831120767034692,0.04402515723270459,-0.07100381500537999,0.08026027439641348
0.050466607988782226,0.06346455223711811,-0.06700126221550745,0.04798745435901883
0.02999487641606582,0.0931821261597997,-0.059701424830246784,0.03505820045052257
0.09015729148163527,0.046324087087159085,-0.07276287969599995,0.006005304641561289
0.010489091798443227,-0.008618446324117564,-0.08782102231793172,-0.032756024096385714
-0.007373867760393326,-0.02304555611095558,-0.10046892964353128,-0.040034993118979234
-0.0634304891780309,-0.030185269330605922,-0.11450200952801037,-0.06436696502019838
-0.13077306726907637,-0.09392987718655484,-0.17753232606023422,-0.1386643632053544
-0.14475164518954095,-0.10919985950481785,-0.19793501591217824,-0.11301413001167766
-0.11273595518720272,-0.06702586763179748,-0.1472672912912913,-0.07480782973512977
-0.057455574806338734,-0.024330574150360492,-0.08021845679081412,0.01242318978862967
0.003114026209939016,0.0481290117101677,-0.039627354037267165,0.11622864232663455
0.020591619161020973,0.02674709689578183,0.004876145258565203,0.14555290892988718
0.015495538131237892,-0.016558938555280525,-0.016940449581263294,0.07085503791674996
0.12200399589939365,-0.02777431502564757,0.021290617494578355,0.02533313068566911
0.13297243807822648,-0.027986985441767198,0.01480604035639417,0.0018108783290875664
0.08311031365291774,-0.03803329163017645,0.023017494783528783,-0.01813304860510902
0.02467347902528721,-0.02937130285286081,0.061073942859025926,0.021573363124442073
-0.004915250418192824,-0.043278246821129296,0.0010410149913082296,-0.010037305495268241
-0.0031924403828997674,0.012845439211106787,0.004116285158638584,0.007876062280544658
0.014864575698417839,0.005473725838379079,-0.01769797532852085,0.0033814930859863523
-0.016471483933489555,0.02097246832791266,-0.009845860607698908,-0.01583832007013538
