0.0,0.0,0.0
0.0,0.0,0.0
0.0,0.0,0.0
0.0,0.0,0.0
0.0,0.0,0.0
0.0,0.0,0.0
0.0,0.0,0.0
0.014356485622326326,0.0,0.0
0.03545517868494677,0.0,0.0
0.007468728689722297,0.0,0.0
0.03814456179318827,0.0,0.0
0.022348194331983807,0.0,0.0
-0.041828826199740606,0.0,0.0
-0.014959789085655475,0.0,0.0
-0.006344541949820418,0.0,0.0
-0.04491160941373441,-0.010395990442111829,0.0
-0.04093474683214736,-0.01863458144186315,0.0
-0.08127050842578963,-0.041889949667153766,0.0
-0.07048948090464945,-0.05155970666817047,0.0
0.0071066330662143806,-0.03611336032388659,0.0
0.00033379507122147437,-0.028210132944228267,0.0
-0.03061563423000538,-0.026631644694011303,0.0
-0.037352025390161435,-0.060842702768135734,0.0
-0.019660528303160077,-0.07087117262508076,0.0
-0.022538519658990723,-0.0704270599585344,0.0
0.008179959100204446,-0.07893512008710322,0.0
0.003864247311827904,-0.053540328630756716,0.0
0.00483818826890532,0.019120169851782356,0.0
0.019422428971836218,0.007343174477408982,0.0
0.06391820543911317,0.005566404532861661,0.0
0.059478933836132945,0.030682007158879258,0.019967046863598913
0.07680306865464627,0.04369018799160426,0.024241458183401253
0.056118999323867484,0.05880362849698781,0.01445039779184922
0.03882845188284519,0.05777096114519428,0.0032326006664393243
0.02025570313797117,0.03242609206989242,-0.0048582834008097115
0.02882698759398633,0.03603601995388754,0.006809306095979242
-0.005861234316549471,0.0312447564810801,0.003781012533913765
-0.004368225135605533,0.0659968993590854,0.001138766859626262
0.0043471259966652255,0.06924924580047988,-0.0065297020778833335
0.0019205825864276969,0.08529816227461857,0.008863803527216812
0.01401641694860641,0.06389450642325903,-0.020084134201270334
0.023759137123529034,0.05288702928870287,-0.0034848882704754504
0.01916268982810591,0.050805263157894735,0.07089683827062054
0.040779527664927484,0.052849535241061424,0.060580793076795494
0.022586918709994873,0.02458485915287721,0.030288112957167213
0.02116062806731921,0.030577575949238385,0.06219776451229335
0.01102241249272879,0.01899855065209224,0.06351878889325444
0.019383619627957104,0.026888668373879702,0.08727344813670385
0.025115212207916127,0.03898820686321894,0.09901155419222904
0.02133035200931671,0.05191209028621501,0.08602148857526881
0.03697880467315194,0.06119169279200301,0.09943281780835532
0.02876208485618942,0.06026853815478975,0.09339637043398694
0.019309246164690114,0.0550861057022084,0.12471851723540638
0.03460265390104829,0.04969544646207999,0.12238606444977704
0.029457588562494526,0.055111902719230194,0.14511100901525667
0.014575934705409774,0.03956150364730712,0.1059837728194728
0.000773561274343519,0.028294420600858534,0.08267785774058589
0.002579635733546602,0.04392477415192325,0.09696164701975754
0.015755391280673197,0.03477581486665327,0.08946323576104652
0.01724939165254885,0.04957894485936762,0.07538269538856064
-0.001221762314213635,0.02668761339579885,0.05808123187055119
0.006812974709478759,0.05071889633877559,0.07068103251197828
0.022772397982576797,0.043017360161012555,0.07106270806658146
0.04498370551913095,0.04822453243059489,0.08909292734009987
0.020886892689571713,0.043471504385388264,0.09764029133213514
0.032998752037750954,0.030804217578020803,0.09388087258875608
0.039818272226270796,0.06085885266786704,0.12479526490672686
0.053363866869606556,0.06098874172185424,0.1194344796971974
0.04255642105263148,0.058796561142491044,0.11141392896098211
0.03870298979985016,0.052384539634313054,0.11038345400586116
0.031508950636359445,0.06571913495338513,0.10788058639784846
0.025352217584235098,0.06909880757153158,0.09934833889683682
0.03341670837626953,0.06250941425760562,0.10917990031316321
0.025189341875363914,0.07071170709514274,0.1079465791966417
0.02322541766911619,0.06722172291195802,0.12013344986492928
0.013269839513346716,0.07415898855782908,0.10282572837008275
0.025320025167025653,0.07172927819548877,0.12608620435951656
0.014197590096188581,0.05678426649086255,0.10224433589499146
-0.002891917125973625,0.020118358583383344,0.06931308944993293
-0.003988589914042154,0.03661973476440645,0.08168315411019736
0.011788012396647488,0.04872660091270415,0.08103180330707728
-0.0017022982466250453,0.024606916132789605,0.08696331748419264
0.01466190747330966,0.03469298932636072,0.09779761281379942
-0.03928716315225897,-0.012404456587207324,0.04566276516511461
-0.04595588170311254,-0.029348308751307527,0.0214988332400226
-0.06104987037485306,-0.07141836778638884,-0.010392786183707883
-0.08767158431554889,-0.07764607705922058,-0.013912520825088398
-0.05825381971515497,-0.04430201044025681,0.015438111094294025
-0.055989808612058614,-0.0565261152378289,0.010188533753390195
-0.05106621844930161,-0.04043125380710036,0.02407261056445371
-0.024682371481197916,-0.0493950320284697,0.021100870914346502
-0.03527501059322642,-0.08671251943507173,-0.021203067669172942
0.021158347490347444,-0.06504521966847822,-0.01195449826522723
0.028844583338382555,-0.048288892811613776,-0.029142027489409042
-0.04069153618670662,-0.07951941016931964,-0.04581165511393573
-0.07331023633900356,-0.13587868152382598,-0.09377298689827773
-0.0731815504609928,-0.10913746870239578,-0.08721608910891097
-0.07861635337850195,-0.13678451370348654,-0.10683698805105232
-0.04409272048503423,-0.09128085159513863,-0.10255301882149073
-0.06442833948449761,-0.08314806457465444,-0.11005611825475135
-0.008227960150600094,0.005250903474903464,-0.06654247526706684
-0.004505919755967744,0.004389386982451946,-0.07359750875665085
0.015919427941529708,-0.06781927666235071,-0.10911675679986141
0.03254113945670977,-0.025590802348336748,-0.08067036894359507
0.03949293091976171,-0.05440567791847542,-0.09263724195310655
-0.0069109609946809035,-0.07472294211924152,-0.1204270320284698
-0.021661832821502764,-0.07021042066126408,-0.15083481763020137
-0.04547542144571647,-0.0603448550962709,-0.1214649304091497
-0.03371312626814417,-0.05668135258333177,-0.10223316563563176
0.012472001719347649,-0.0161591203207097,-0.09439356677327145
0.0007723775325641073,0.052306659319255114,-0.0906793821077872
0.001719840552217485,0.022013096538731687,-0.08952682579820274
0.06133680107886706,0.06582160028964078,-0.07996628900064953
0.09947126569729016,0.06943104999307216,-0.02818752697257873
0.06486404209135617,0.0695118482135169,-0.019415992005098616
0.0767243417864643,0.024120572998652532,0.029498131274131284
0.055116835123183716,0.0427656937724364,0.047342795934428604
0.011732047109170224,0.047969298881207365,-0.023103220933266944
0.016076135476822323,0.0057159737811228436,-0.020021104922474896
-0.0376639360273273,-0.013289524910718126,-0.06697217721721146
-0.053952508957732105,0.01877326397842272,-0.05735247165846773
-0.049425707410779444,0.03916059153998678,-0.03379931072664371
-0.08490854576006326,-0.018187686814941467,-0.07743500858582836
-0.09579401573997948,-0.02422871910838314,-0.07953675512129013
-0.06850781097790956,-0.03584966835123185,-0.05142948956759646
-0.0695852248720499,-0.06498917976210532,-0.016081887328104484
-0.040405640304141295,-0.05478381457780543,-0.03397667943813495
0.001906258905381113,-0.038273893312781436,0.02502845806969709
0.021625075872556413,-0.0344154037508957,0.03262614862381626
0.059344311475409785,-0.023276918181564858,0.04461690842843666
0.055785449428902505,-0.04320439284702119,-0.020125934559897696
0.07010652039486509,-0.0221523131912083,0.019666021538941786
0.06521375268284635,-0.015563075746672633,0.03165967330253172
0.06671064949288888,-0.007680491787419102,-0.0020084194959792763
-0.009671809100998841,-0.010299508630969496,-0.023452157965168197
-0.03268479377431906,-0.012708482721072549,0.005826201556462251
0.00030943978755318413,0.027826363934271965,0.06807665234633178
0.015992537096151525,0.062295131147541045,0.0429744399971924
0.010255594359234932,0.09253434861777858,0.06606364076885808
0.04851216902567427,0.10810815901897068,0.0683828490208465
0.0557275404250012,0.1259699025920422,0.05279404218576775
0.10150502884253969,0.13606343896856943,0.07382555017949136
0.10764269967360578,0.09148558744252416,0.04971018451631042
0.06466585805485532,0.0711284046692606,0.0342650881535152
0.07206786703389492,0.07505412836331808,0.050030181376651606
0.07757580303030298,0.11508316266985205,0.06690667165276493
0.03503318447795468,0.07178929827677046,0.04804668606635808
0.03929618941185594,0.09857409013828689,0.08147689836013275
0.021075536871706185,0.0874613339771311,0.07910909613238391
0.010313873347697528,0.11351271395313343,0.10204408014507886
0.013804083115373591,0.12260651254685402,0.10833988707958882
-0.0018713833039961673,0.07271035075356354,0.10255997936969272
-0.05722721918332868,0.03472222061471201,0.0991803770491804
-0.04527276686401464,0.012878757575757566,0.10660483363681515
-0.06447515792078842,-0.0198078929842457,0.08615887119015339
-0.05323840569395018,-0.024779986427272076,0.09806838368829453
-0.026024513615046197,-0.01540704874678572,0.11856005418493966
-0.03611863420318054,-0.02309697984293897,0.06627556683050578
-0.05408134145263002,-0.04693408892763723,0.02085596887159532
-0.024608514931759258,-0.058586424951973096,0.012070550352651697
-0.027524249140590838,-0.08591114654480536,0.019285089672077347
-0.031669417332813025,-0.08297626747970308,-0.01714377721892611
-0.02059845074128846,-0.08098191652011497,0.009609454879546871
-0.03572480176335415,-0.0701779359430606,0.011145542140728763
-0.0022305130111524257,-0.035226526158453286,0.07428752920729306
-0.0016769783001664292,-0.06148766209635937,0.05358006263620065
0.006574923346332506,-0.05062004906951546,0.018409700161041
0.04845411326091023,0.016554824016935494,0.051851864883401266
0.07335304583948071,0.0309648475980509,0.04424239393939404
0.07430156699879582,0.05534617871651879,0.034441994547169355
0.045315355174525576,0.02661249356149476,0.0011730499049729792
0.029806260202869157,0.020076764690781353,0.004360392251727017
0.05849106329454501,0.030631940520445995,0.006827455364756178
0.07504169603397567,0.07897547363777861,0.028334742807323607
0.05105626167510205,0.09541279524731516,0.031236475727127264
0.035113146695099906,0.09736954015168311,0.003093264773906187
0.02357807844049402,0.11555829490045635,0.022993431433594596
0.057850088720710034,0.10884255616890619,0.01904636085128493
0.0426918246799371,0.10303127679118204,0.02562281850533813
0.04833366176117922,0.08286149278275688,0.044716044081263326
0.020065070795467228,0.10247401790742146,0.03468546802431428
0.006141862173951037,0.09494151314168274,0.03951552001820124
0.0015419260746804206,0.04826867381052377,0.06562257722792335
0.018009228731365207,0.05803830696570826,0.09080030189380121
0.007614508890439992,0.04001137296321647,0.09757202827845073
0.015128326920402755,0.07117750543610873,0.0996842099027452
0.003303027618880945,0.05499282358879375,0.07617366625844897
0.008449937430393711,0.05035355793835128,0.08252792565055768
0.0140121250274106,0.03278223962620764,0.11434670616537315
0.011056697455144803,0.008375195538458854,0.10458709160284123
0.014810779342039932,0.03728629309146584,0.13828638245542585
0.027205317768690767,0.04369684672749598,0.16430467472830834
0.019278151753871375,0.032119616553248756,0.14445815389097566
0.03168720077675712,0.04385837430152491,0.15140843539497864
0.030219737765670093,0.03220473260640062,0.11773475760759339
0.03297310346001388,0.045851196956608935,0.15302377124203864
0.05537098713651681,0.05771359440306351,0.15813452352621846
0.03148651351351342,0.06829958299368434,0.11986498709712506
0.02688596771305602,0.05279757413048745,0.11390016291062569
0.031254110076964034,0.056334131029597834,0.09859950991999825
0.0074457918820077015,0.035958409023221345,0.10969534431305425
0.032799986666666614,0.06255139746086695,0.12098409901545869
0.015496662251655718,0.053159269787392764,0.10618958609694397
0.0024921564137502586,0.04569714301256779,0.0799774373312465
0.01310100843440303,0.07045963650220469,0.07942494527393823
0.0069038168648098315,0.04459463513513519,0.08354369686255665
-0.0014308013045317813,0.02688596771305602,0.07175764645082981
0.010954217142175626,0.027498255097320325,0.06050110506017843
-0.009811541567409524,0.019811168990974192,0.06453842895745601
0.0,0.02226664000000009,0.05518846379364369
0.01583146670155693,0.02834435761589408,0.07549517729615793
0.00724165247015007,0.021642196265535096,0.0806048396058592
0.02367391887423341,0.03668275811128644,0.10748775818702984
0.037775187095552484,0.037775187095552484,0.0925671994670104
0.032506502154216764,0.028746085929217662,0.08669960273014012
0.0203390490354257,0.032862677822199156,0.07000277645614948
0.017607917506401876,0.00722951209952904,0.07023312564518178
0.006053606466429679,0.018781831714668754,0.07293952996128301
-0.014250866789714548,0.004579340573073359,0.05048574636671213
-0.02868692134539075,-0.006077860957510338,0.06395353167091722
-0.051336715233757296,-0.022250982318849463,0.021351378378378288
-0.03805783477343969,-0.008987821114543099,0.017656500330216592
-0.009072310016041097,0.012402154370813488,0.04024144707277879
-0.008203025180839221,0.008865710907394258,0.028852519995379963
-0.009729906417489324,0.00886917983224667,0.03133330666666666
-0.011200846720511116,-0.0221535422740023,0.005562887417218633
0.012099921778559525,-0.0012838361957097902,0.020330575034904957
0.027123510793238798,-0.018956148829375033,0.017031245459681894
0.022607793832602828,-0.023471759093052855,0.013416777911297823
0.005286859885743556,-0.014287483337336407,0.01404789336815392
0.03204967816165712,0.020444658307062102,0.05397920234839119
0.03671627761386636,0.02781344633991723,0.0352440360862903
0.06427825511797296,0.034438637377562024,0.05386728978393865
0.027767013398032895,0.04128676792506851,0.0460551746696322
0.0363261639698375,0.04670824815628092,0.04034650096090781
0.02622098870613148,0.05636403661381229,0.03285889911284991
0.026808671457268844,0.05218192554726814,0.04272510262049378
0.01302280224113701,0.04319792224895203,0.05613582391999542
0.0033669658718800052,0.0398035942027756,0.049022192269446895
0.006559393320814473,0.051454480968441574,0.06078001984557227
0.02689182089650364,0.08140147738149298,0.057444604037153534
0.012554406931798892,0.04717827423604214,0.045833868864216996
0.027179435229430633,0.05642155312720155,0.036395868939562794
0.028856938331407594,0.05861179722576608,0.03376431614821918
0.019530296179720685,0.05797850253948823,0.04286265231319517
0.027094208639003425,0.03481089362871416,0.055967248761378804
0.018074523101573398,0.03254771087298385,0.061266421222753956
0.011205834621335852,0.027475172247208947,0.06286001711867865
0.02933954123913018,0.04878050214310831,0.09208125933942765
0.02682595959453819,0.04673713039417516,0.09562838803501966
0.01809126981433624,0.05022547846821034,0.10942042578935109
0.019277363508340282,0.05021857400804831,0.1050210014452944
0.024806425760000358,0.04684795928682432,0.09206961603857065
0.007608659144613835,0.036912764565160024,0.07818561946958984
0.010599916066005122,0.03159965494652278,0.08468007975901953
-0.0029815146805370228,0.01827040239391967,0.10115911752263207
-0.022443878665762758,0.010557341155872061,0.05823369252816939
-0.015146046872893261,0.0069503717363644645,0.0637640756317431
-0.024265504936362432,-0.004006823652175444,0.05437012643816993
-0.019837052312267116,0.0064257878361134845,0.06477684793197604
-0.010667613568260854,-0.0012100435770818361,0.033558727353384415
-0.00905843840146747,0.00410623173528145,0.036787591051562714
-0.00490425849053241,0.0020477596500033998,0.029579194446317073
0.005709438775510333,-0.012641586467300759,0.035522252740047104
-0.014773564670051672,-0.033843938176510366,0.011311423666056827
0.001462916024173022,-0.020274252123416853,0.028932942331309754
0.0036139741329001903,-0.009040109432615679,0.040724483170849965
0.012599963501333002,-0.013106623849176595,0.03312731685717378
0.01984606711385696,0.016301102720843782,0.0538155860528908
0.00877504486656942,0.00023833134116023168,0.03184551747582662
0.005314675621274514,-0.004425777617841606,0.013763764038094093
0.03588984714982989,0.023809511661807708,0.034618217955048186
0.046987217358801764,0.04153547973999815,0.04877453850080384
0.022086232675218736,0.03803490232884188,0.033875679530407043
0.024168412917721708,0.03120101117453291,0.03782729008872615
0.012501438701480799,0.04010173200749047,0.03884316358716312
0.02585793674589926,0.035482283323096935,0.039734213536199936
0.04205214314362094,0.04255320248700065,0.04468810086803535
0.026222105199597785,0.04469135107269773,0.03148479502647097
0.0175560395871169,0.07571283092781682,0.03930647238221684
0.037932999696230214,0.07583682103866538,0.05402503408527218
0.03376168303181503,0.06217741116738482,0.05257521113357924
0.02912055979314059,0.057071020409882336,0.04321638816350473
0.0303171230255371,0.046113880810073254,0.0631666906388588
0.031361626956244885,0.06589608117006854,0.06615011761263123
0.04220142310559428,0.08302289740395669,0.07822967890501628
-0.005255930253288405,0.032985275664276996,0.057580150631681246
-0.020705974905158676,0.006278351208502515,0.04807460527792202
-0.02870382028938461,0.009395126027125585,0.04778737105677634
-0.010413107196674667,0.021378528536881596,0.05324657141918882
-0.0036076664128860477,0.0294699948624344,0.07075352470616034
-0.01911681450363823,0.01916601320320657,0.055328350436953895
-0.023629876010981574,0.014758433710650323,0.057939654815731254
0.03078336849950315,0.0375765993196115,0.08394729938462007
0.023339074869818194,0.011997292458773616,0.08861847236211313
0.018266434610812232,-0.009730708635348782,0.06536816639395825
0.016012833123641615,0.0038422873509387275,0.06625860199876611
-0.003733808680713117,-0.0033955292223096095,0.05348170487002394
-0.014702541935321263,-0.025366404465605563,0.01957773299236065
-0.005794818638908792,-0.021799855398541783,0.042659700730688685
-0.02117229822091149,-0.025515897775858682,0.05538859586488304
-0.01998415942192604,-0.002986388766055213,0.02990038004153275
-0.02285192034455851,-0.011900704382413484,-0.005697069975652325
-0.018799932031972628,0.014078034231926786,0.023605425164875512
-0.006700783417349884,0.00034312021045395687,0.021728984152546323
0.024407184189954304,0.002036671261710838,0.03156668681576433
0.00674281142857142,0.003989035878482689,0.023231502996004322
0.0050091418492323745,0.0030677990440223326,0.017871508663501456
0.02165895086432201,-0.011811879024111335,0.02532087005019941
0.04583729113086853,0.009822761657446243,0.021937900660577072
0.025470317784749095,0.021252285920439408,0.011314777482963707
0.03578775481120235,0.01981305820526725,0.023731473019131488
0.08322044000046178,0.0894945682171073,0.08579515757317853
0.08082646524356747,0.10133027534980713,0.07339348613506717
0.07725418075729697,0.08685712,0.06316379194512442
0.08806944068561111,0.09847452634219156,0.07044596261865942
0.07725845086631362,0.11002298006833013,0.10670801991059094
0.07865302344997838,0.12733872055678389,0.11392259570458936
0.060492374897554844,0.10222574106352716,0.11774291277753038
-0.006150359637235562,0.09009829739421793,0.09047233215143534
-0.002835805092278064,0.07204160054294508,0.07422499686212937
-0.014090389360470853,0.06436606036399413,0.06861185476662536
-0.04373511335340681,0.04519707799271724,0.04840353258939823
-0.040062273794753994,0.042963441587731084,0.030644083589126
-0.03900012285032163,0.035889981308363496,0.046065281698091994
-0.04871448943478703,0.022488275536639367,0.04421848871864106
-0.023075278920716508,0.028148836655208637,0.0485196093995361
-0.004213197720387694,-0.01448972167205257,0.07370809516042832
0.00938563333221775,-0.0059867661588778424,0.09473686852759529
0.012571833073756393,-0.017560442009683246,0.06777142857142865
0.016001762698708205,-0.026116665480706132,0.06978603459863542
0.010253599346927145,-0.02854177537191023,0.07834095351356146
0.03009081989376102,-0.023545326271327584,0.10079516256297343
0.016426873700095313,-0.014572728219006834,0.08616330490301499
-0.004336830925144593,-0.012691410224099404,0.0762634127173956
-0.026838556919257826,-0.02991367116255177,0.03997290063172773
-0.032537739484105786,-0.0359428639943928,0.026109695816083404
-0.039693550710933764,-0.02200064014307927,0.02220207320120151
-0.034294861843907266,-0.022705146993299716,0.01928280333784389
-0.030380285005101808,-0.014786864224784334,0.02057241680294234
-0.030527084198311728,0.004267425366751569,0.02685166794087049
-0.04398171817640664,-0.03382006692956914,-0.006623225814029171
-0.025950043994572108,-0.05108950654654644,-0.06483895548837705
-0.021241265861724444,-0.06519440051980566,-0.07079086304790319
-0.017952072649647034,-0.05148236112597677,-0.06813875011858572
-0.03285762841971042,-0.0697031279163229,-0.09399938012227954
-0.02410163260409337,-0.04829055658740512,-0.07545403374061312
-0.03105250633092725,-0.055343095977725645,-0.07758535099739228
-0.021557895800819956,-0.06992706390465966,-0.08348076402623077
-0.03399838405973002,-0.07935826238260692,-0.09104250434413694
-0.028710308254658996,-0.06699237930493758,-0.09490206246256451
-0.014556544305240024,-0.033853269541467855,-0.06857935007296616
-0.0036604896742277134,-0.03479610006197031,-0.05603120372920359
-0.014369094872718901,-0.02865356818955158,-0.05070813170522499
-0.002586337568874515,-0.028264702325424076,-0.04263362023456842
-0.014650777467889509,-0.054695980112181124,-0.050661965758419615
-0.005654350073650977,-0.042449161961310336,-0.07483359539224384
-0.011637379262190153,-0.05328278958067974,-0.10165010470012578
-0.03698618946556298,-0.04939530858601434,-0.11136941157406398
-0.016303077297429934,-0.03317538817957375,-0.08294980199079524
-0.03815496452773478,-0.033973931227955535,-0.10130896987007589
-0.038782357568738095,-0.04288280101295904,-0.08910252327142143
-0.030544040328629812,-0.05419992128640515,-0.10654342581839209
-0.027039596774738318,-0.047813820063129404,-0.11439740391670872
0.0067114093959730736,-0.013385690589167302,-0.09168168782582668
-0.001545743199660992,-0.022809251716513563,-0.08827358497879667
-0.01832398459383765,-0.036871646928394626,-0.0694766906679577
0.003552433518736582,-0.026980459861778636,-0.06083774514268052
0.001993877504248789,-0.02699319953326194,-0.054873316239333024
0.043038900926894524,-0.010935671170315821,-0.0388912800053822
0.04651720164681306,0.011295481528458239,-0.04401831601676095
0.01766084210526316,0.00974821886383232,-0.03311474681886314
0.037989793521617375,0.026256964559048555,-0.02842486933925833
0.03388417508162911,0.03400714706319014,-0.017067955046140445
0.04377579941002945,0.03244630018674124,-0.001805506596518629
0.04342735572983725,0.055535845667348066,0.019675143438003695
0.03487972068119053,0.06486041367908957,0.01919621645271192
0.04684294613273184,0.09202231492067159,0.03283479140897326
0.051488287518945235,0.09124525721589968,0.03906865284263529
0.061381341836560716,0.08198832748538011,0.0675051665125702
0.07371209836375459,0.11194476465470092,0.08658213662283241
0.041374678288205735,0.09523245636389899,0.05484943192833093
0.0126766660609902,0.06513270796460181,0.03639493768989529
-0.010353596096997557,0.05173824183542072,0.02334846161679511
-0.02090362593148878,0.025076905559891643,0.013867001596403783
-0.03322768681227869,0.008092079053842653,0.019478964511780397
-0.030699426425263653,0.03057115203835999,0.04061738518318173
-0.049909005572164336,0.017783328692825617,0.04450722948310361
-0.03126362251638221,0.026218940043916096,0.06111771845702066
-0.01019163654120875,0.01006103334909605,0.04283377684407087
0.0014469115514059003,0.009423423933401584,0.06548260741797303
-0.011008539975536526,-0.020376682229577205,0.04316209141069463
0.0011306501231425434,-0.03592809005831438,0.05278803884451276
-0.034348188565812246,-0.053557788907154645,0.03280057408399686
-0.041821655301788434,-0.08118043279255362,-0.005847953216374269
-0.05255485326209886,-0.09446288654397916,0.006907252507952304
-0.057638512761914146,-0.08597487779065749,0.0010699797756511655
-0.06757058009878035,-0.07056602649493832,-0.01002947492625368
-0.08117833188265512,-0.0904841088588561,-0.043427355729837414
-0.06674199660953146,-0.08106306015790063,-0.05801896530198447
-0.10289867665544172,-0.12176367852222754,-0.11465692078087343
-0.08376474117647055,-0.13148211512171554,-0.10493052281506668
-0.13719699099241908,-0.17765756033882946,-0.16303357443627475
-0.08182896966136476,-0.13368444943264127,-0.11097057395320352
-0.12920147487004838,-0.18231673603395052,-0.1740899974461904
-0.083333295602872,-0.1674816458941438,-0.15963647251106658
-0.09172314970623378,-0.1560603068122262,-0.17325699776124037
-0.013645687435633493,-0.13472613885738668,-0.1658137760656239
-0.03441191709342267,-0.13153943326201337,-0.17805226096955434
0.03221392867226585,-0.11411761176470583,-0.186033927444948
-0.08925099183161268,-0.16723830275913773,-0.2459033764837728
-0.05721326463764741,-0.18194774995063234,-0.2522796921749991
-0.07969565720487738,-0.1783075046887364,-0.236291079083563
-0.05222487482613562,-0.12946649376570607,-0.20823594230909162
-0.061733278710521505,-0.13008228618202186,-0.200600478149672
-0.0547871697388499,-0.08496392893923807,-0.19638208693212283
-0.039309520346234306,-0.07113509519010387,-0.19326421753683998
0.07214875318001684,0.03481838388560871,-0.1490249255892788
0.1103369095675192,-0.01073593353346092,-0.14298515560253602
0.11096596718984707,0.04831642617893319,-0.14280920297278574
0.05468091164859309,0.0016018554744704453,-0.1661480718110222
0.023369050262471002,-0.019850759921416467,-0.17281315104985057
0.02982547749506258,-0.044635941870166736,-0.17334845262512308
0.03690912562394945,-0.0025265293561114923,-0.1337336243785021
-0.008610438696792662,-0.006108990460465247,-0.11952945882352942
-0.044194624312449325,0.03820471306889854,-0.1354228810612816
-0.0453060867113768,0.06155641963805535,-0.13159138236073809
-0.004531480801432461,0.0834058577485971,-0.10977353731171537
0.03302976756830239,0.06831601164346371,-0.06999511661777875
0.057650289247962824,0.0769230640829471,-0.06316555013511067
0.048393506242007604,0.10635898687791273,0.012358380535530332
0.038482164002253516,0.07437109894227803,-0.0020543914504774145
0.06046510425349128,0.026890966403257867,0.06264565028015022
0.0057439549065664945,-0.03844144723686782,-0.048764675947863684
-0.06145406181673428,-0.08473688913627832,-0.040514646605930564
-0.0944736842105264,-0.0827668810178181,-0.08129760612481088
-0.06432441395826437,-0.015359494359113584,-0.034905356645492935
-0.05239066699377755,0.018032787624294676,-0.02740806470602714
-0.08003089191931427,-0.04679378624733272,-0.04920208972880672
-0.06669245614134897,-0.03327095314115196,-0.03917669166626732
-0.039162319293414245,-0.03337885180243095,0.003550631810786433
-0.020256748081504832,-0.060722139193566366,-0.002903557037030594
0.026881691368788343,-0.053822518307068724,0.025094226135937734
0.00441744880128514,-0.042631552631578945,0.02277204136592688
-0.010869538816540845,-0.04792042231775839,0.025316456048357895
0.0276923496503496,-0.06561541283844632,0.03376478520639326
0.05653081013215795,-0.016469364173065174,0.05667689005678142
0.07854507056070922,-0.016898839663267884,0.009537700610351007
0.13220736750145592,0.05738374955964436,0.016736387941825834
0.09905193431588889,0.1079885908127987,0.014101084428833335
0.09551947236065217,0.15823886951467603,0.0623750508113427
0.056030349423827876,0.0745443656945232,0.058039907571020885
0.09866629972783209,0.08333341720343859,0.10286893864216963
0.031397094939897986,0.10265728671328671,0.051059777334761296
0.0586537338755248,0.11513479240179118,0.07803319497772297
0.07613165956451502,0.1842625992492161,0.14473327345371484
0.08664869542033454,0.22888762376237612,0.1542669384190261
0.0353782465861028,0.16782229143405375,0.10496715477394145
0.09018506372996213,0.16630014661077108,0.11657896052631575
0.10157310411595068,0.20648488951953467,0.1486696240937645
0.13356173939937793,0.21624931071382783,0.13644461007686423
0.07102136836886457,0.13042911746653268,0.11181166865913968
0.010994239961758993,0.11009052762223502,0.09133128578423443
0.027251124946655755,0.11496906854503419,0.17895017434117239
0.07427608232492523,0.14149615402333335,0.2647647151145425
0.04301203107456955,0.1104002397490935,0.2861087183958153
-0.00033732148881149423,0.1420864153179042,0.22722252271610915
0.00011182723133629138,0.10714720275682396,0.1994095625097784
-0.011457076196871764,0.08346020210351111,0.1946852867132868
0.019148972083900012,0.0686663485374317,0.1917070267230691
0.016263022477382563,0.05293978250477999,0.24695720368201501
-0.015452322785818925,0.034241693501381704,0.27096681712288867
-0.01310590864069804,0.05840299355874214,0.23602660919843227
-0.04465693937779657,0.0008248762570720441,0.16726219991032995
-0.07462517592163274,-0.0699426627684697,0.12210012375661544
-0.021306486099426123,-0.06456310625837171,0.13772447722953962
-0.050916248539593534,-0.05300314533025606,0.07051281866790095
-0.07763027945034291,-0.039361714878527486,0.06639546078461446
-0.08844083986205946,-0.08223756916623658,0.02327672265234758
-0.0904407690999604,-0.10388006524339886,0.0229174590683006
-0.028023042505592875,-0.0673370112453505,0.0356292063182689
0.005198887742702147,-0.06479193330051891,0.0680884284731978
0.04964117343639172,-0.018236709047998772,0.08695648134684207
0.057680568063532625,0.013228810892737284,0.09779309222694538
0.04429686394598972,-0.015657596663678993,0.05193360188398599
0.07037825813748919,-0.03336741535163517,0.017805903441682598
0.07539339491730894,-0.02119371037697659,0.012322274589519634
0.025681343706310984,-0.030681168418572748,0.02592995305864481
-0.0061342555464788985,-0.027081160956081523,-0.026278623305696094
-0.04341878062678055,0.014871273302760052,-0.056111525919262335
-0.046562748241614736,-0.012918672557862929,-0.07664770918716422
-0.041357392198984606,-0.005743626891271448,-0.05844234193068668
-0.05835389358586119,-0.01316599039618529,-0.0520094693146447
-0.0622659044413413,0.006912190524066907,-0.07589382038848282
-0.04488006483713404,0.017872952216725708,-0.08786375646903878
-0.04235749881486744,-0.04142950788263449,-0.1059767798898027
-0.037645972417298765,-0.0283858555254493,-0.09133861436808513
-0.004362494099460557,-0.06370365811965811,-0.08077862208923549
0.012291051962991004,-0.04841134436471373,-0.03582295799164043
0.04127188433685358,-0.01602451928745657,-0.031431210491403225
0.04792805611852011,-0.014206868949321924,-0.04710023780387882
0.02374178222795425,-0.03101592858108785,-0.05155229635064387
0.06141793484460762,-0.008031180064513605,-0.03846594249492712
0.033547895933992225,0.010407854668081338,-0.016955163075474
0.03602724994998779,0.014057671811825665,0.029138000594099885
0.03569696411247016,0.03368887664889275,0.020334988524760546
0.012333839963265762,0.039085545242311476,0.03311742556232628
0.009528382676612513,0.056857919832590566,0.042943338609942316
0.01860129220194102,0.052546166280098575,0.05982156591680282
0.02559829802591498,0.06516626443058257,0.0842039301776186
0.0372499709486159,0.09440163380772018,0.04906111269311517
0.033834550029327455,0.0893785725350157,0.05845562976251656
0.026025720069435397,0.06523847053366749,-0.002621116809116768
0.041400519973970665,0.06896551640401276,0.017215458675374048
0.060641810744648174,0.07651778046897904,0.05926710053256395
0.04067354344424191,0.045259683721530344,0.03040981637688888
0.03227303264770184,0.07404272165668899,0.040730289308747905
0.01997695196251614,0.051672867047811974,0.043226692883587714
0.005681818181818182,0.060007211881835235,0.07103961289021948
0.021709335753290794,0.05051685677219736,0.06528467797749159
0.008973205259277422,0.041383339693434586,0.07646637456857869
-0.009343759525166724,0.05346577888022487,0.0946410632418748
0.019484947140270076,0.05556865135515212,0.1155860891116991
0.007422447310446256,0.06225542363914566,0.11807287376162476
0.028642578316708335,0.05479454440207265,0.123531564602514
0.014689299435028292,0.03695155974483977,0.1348414811642164
0.02012975889353061,0.036590920454545414,0.1292399372275307
0.02307773222835242,0.0383912261788583,0.10613428159034659
0.0248147209704632,0.03668782329977483,0.10818353438339573
0.023918631676331386,0.01902112304736096,0.09699435763395141
0.027349820778079584,0.048655388590351255,0.09611719981082906
-0.00033016728670301975,0.021480027473684674,0.09711318882578572
0.014253885938066053,0.03113324960640214,0.08441486092189207
-0.007673799521225534,0.022824824858757104,0.08420169084205756
-0.010343255182985935,0.005815298720986329,0.056625926105759304
0.0014244001782973328,0.02893166657814561,0.07151229525748078
0.005567099600839434,0.03435891610956475,0.0896617212010678
-0.000651939592002031,0.02794232672468619,0.08506369549165414
0.010679301757584577,0.024782328091486432,0.08858058606473188
0.012296826695282715,0.014747919714418661,0.07035056965812123
0.012704386192147168,0.02082399707714935,0.058545035994111774
0.03335556963852413,0.018855524897440096,0.056136386363636444
0.01673958387878379,0.022557252065050177,0.06181447880991133
-0.009444235471855087,-0.0002190971913804664,0.03646068790935152
0.0075024789876864785,0.01146166344873202,0.03070080020687875
0.00762523940222525,0.0051070412377163706,0.054010914904035666
-0.006290607579954685,0.008697577701253423,0.030364429382915527
-0.013744889576631232,-0.007356148279399385,0.02354808052647851
-0.025715504073262264,0.000331484765736351,0.023163875706214733
0.00010762939847196885,0.03335556963852413,0.039364840960967144
0.01665750136986305,0.014989004048380687,0.04435432749399252
0.004640535089983361,0.010529667481665218,0.04525037155289411
0.019567545945945872,0.025443046369000223,0.05409631100820036
0.02248414028102586,0.020479269483248307,0.045769121550142566
0.035726079605084435,0.015618243458294332,0.030596499773316164
0.033572533399032524,0.02094467155982694,0.042204820416319976
0.016354604769644714,0.016354604769644714,0.03551850432450664
0.012504074997436975,0.010760787689658883,0.03356077355504318
0.011279439737004649,0.03167122191780825,0.03144518565065801
-0.014314484451584836,0.0032375888954202458,0.014736360498456925
-0.00032021776259613774,0.01243245405405406,0.0176029883473105
0.01890223215401783,0.04136652342174671,0.0504238896746915
0.022972562152903615,0.05895358659645673,0.0511637669924514
0.003387677359598611,0.04671447664115483,0.04706144654423707
0.01873737889918024,0.02958898150228144,0.06393150847383793
0.017633354765597572,0.032661486450193594,0.04814005365120236
0.050774537981653926,0.04930716722772238,0.06035602278475838
0.021676433066173412,0.014526582854980166,0.04033922974514277
-0.015616873886725693,0.002561891545687446,0.02309362669628674
0.005744756752553972,0.028299893510250897,0.04436013159523213
-0.00559188653293828,0.007052078514887432,0.0281444535430228
-0.037621547964854334,-0.025090017204001846,-0.009145749749392168
-0.01315242130002856,0.006494208453103342,0.017324878941138457
-0.008701863226863366,0.028574495735866644,0.06115070684931499
0.00041807065217380345,0.02969021116276045,0.03302392475614393
0.031729174440570086,0.03470368318838904,0.0475675891891892
0.021289801419775618,0.030709484091416647,0.0733463521061007
0.0447745464190981,0.028514759317208222,0.0891493932463491
0.09675322387895424,0.065625670664968,0.1154058161654616
0.07139834914958378,0.05852229995773223,0.08984289671093397
0.04316843864156904,0.0543841214702258,0.08882187416692486
0.0656080122690346,0.044226044226044155,0.09571387241224073
0.07502575696541272,0.0887332566889632,0.10454883054922781
0.06996141224166816,0.12031519634402024,0.12318532237403916
0.07301719231220485,0.09731023888970566,0.1283640017979923
0.04198017821782178,0.11660475331564987,0.12447913770612834
0.05676769615196272,0.1623412493144207,0.13317808737220088
0.06118205997065525,0.1338058056504569,0.14116897689768976
0.050980362745098005,0.10709485475379835,0.13872953196016066
0.014399539491207439,0.1039489855416948,0.1367254640353429
0.015966555636128577,0.10319917227659087,0.1414842468449707
0.008044652354925137,0.08307917767253113,0.11633998044901035
0.006651501456699067,0.0758606776088081,0.1065385858896718
-0.012238396746651817,0.046831712871287096,0.11553074610182253
-0.01865845659747259,0.038503316827887116,0.09927891944238855
-0.0380596465874901,0.020889030375427543,0.07640918341098583
-0.03302733099323045,0.001764705882353008,0.04606879606879607
-0.04817588310241566,-0.023231237846428745,0.06344063545150494
-0.07191816595778489,-0.06053984926306926,0.05249148323022741
-0.0791014144024654,-0.07666104195869619,0.013189292624474989
-0.05854536862162004,-0.054161888144467624,0.056127331564986775
-0.05637417898328404,-0.07268309909675733,0.07785868510625193
-0.022498059857504013,-0.05961375949969665,0.06621537903305078
0.01976900567625748,-0.027985075410030095,0.07611272175745698
0.01405405405405412,-0.023563906947362673,0.07793563437175487
0.06322711306478732,-0.016838203613878337,0.08462327998713559
0.04817552374283574,-0.03990235583696637,0.03986176692543287
0.03918023870624637,-0.023598262722328435,0.05047223468597315
-0.0030223956674915622,-0.06403105843097347,-0.020198029702970334
-0.030059582438702905,-0.0705390708139734,-0.03475174217838146
-0.04999999184261009,-0.0400504740093927,-0.019998059202097632
-0.013277786392711897,-0.00362108044627142,-0.0018627647058824205
-0.023977127002419222,0.008157267813267748,-0.015263473461908037
0.013886152671892249,0.04886193320914389,-0.0146360101251091
-0.014307840017249909,0.0451004621791813,-0.0350180282029897
0.05244546334322421,0.04631304956486786,-0.010357240789761316
0.04234435028161039,0.026697581569663887,-0.047925980493965084
0.027982665481011526,0.009523799319728158,-0.05065770966213814
0.022885777878121658,-0.0005757965616831363,-0.028544758261513693
0.021446646101644748,0.015506871486722201,-0.008422437937398304
0.024112654320987654,0.010275946912958148,-0.006735285187365982
0.040015712436403686,0.036964589537168246,-0.00441274050487762
-0.016610695792401365,-0.009860827342211382,-0.033226391670258794
0.022372661274745964,0.052849667065983,-0.01456541148494992
-0.0042256288477667955,0.03641203957488093,-0.03669550267714619
-0.01248322462534308,0.03889279803804016,-0.002715350968327626
-0.012406909834003789,0.016403153254162754,0.012722675670385491
-0.025240158221887424,0.008968590193632544,0.0171990171990172
0.0007544511433943993,0.02353397955246904,0.07354582849865103
0.02226126776530487,0.02687326428867462,0.07318572310753843
0.006622468439918027,0.00700907331715656,0.05364673444196569
0.041053941753598375,0.03512897516911097,0.06276441541881089
0.02654613094306221,0.037441017345891885,0.04732139740114878
-0.0010630073135966128,-0.007393854497732481,-0.007965393703418238
-0.013140106280193208,-0.025195648264894527,-0.010079482457840702
-0.04937811771452734,-0.04991526652853648,-0.04015224624457173
-0.03858637168824366,-0.050735542712791966,-0.015646371686947547
-0.014683457704523043,0.008982601229888644,-0.0009668019921346056
-0.03185137040195978,-0.01977161877777873,0.03203312481844313
-0.013640267121341199,0.02763243802166322,0.0650506310233394
0.007932659148708837,0.013127246718290495,0.052530600111740655
0.09614255038322443,0.08194816152063698,0.09969552302711963
0.12856861008828138,0.0999999806763285,0.1098654297160182
0.1002383826648765,0.04362982349331448,0.06819058641975302
0.05051289144621211,0.036867250340035795,0.06473125799069493
0.05248214195090985,0.024885593770564245,0.032069092038999665
0.03937391835322912,0.02597407386432974,0.0620154916292614
0.05979456646905525,0.0459410628019325,0.08510216027708024
-0.00866381751218126,0.07371572776291786,0.06577682989991192
-0.03855950001861223,0.07166634101885974,0.04466501283322204
-0.024288957110609542,0.07117368371848772,0.017705763797325167
-0.008474567215817285,0.06934228812468557,0.015088626790940895
0.015908447593421634,0.05670603083824386,0.06619799973048221
0.015430092892079143,0.07607955770330628,0.054803722913835756
0.009961954536532385,0.07096898312596706,0.10056246717531903
0.00108120553349318,0.0664171116917724,0.08041623222155704
0.01744933324912602,-0.005269703512591129,0.07624661549343018
0.025541384888791135,-0.02661394864495304,0.07072463768115936
0.023225566919598355,-0.005507909706546248,0.037881604658454505
-0.006593351829487686,-0.0007368736318509946,0.036103210203530384
-0.0042766332251749535,0.0180482094715455,0.04338294365130468
-0.013271126612386833,0.016723625148564465,0.043132079687782376
-0.0077400863312025074,-0.0015395580789632575,0.04433077578857637
-0.01984375451619586,-0.01648791812754154,0.0560123907513092
-0.03022919148168198,-0.018180139029601125,0.05218329794579294
0.008262248122954865,0.027669859849525545,0.10081290942147828
0.004701281212169616,0.012541796846356314,0.0827537618615632
-0.002558695056200367,-0.00045782968290736833,0.05622223945121888
-0.005997855270830111,-0.004731619568123371,0.07098795861121977
-0.012335609977324235,-0.02358319647372301,0.045712111179644035
0.005038429643150211,-0.01260014388803759,0.05298010263979061
0.009490992746896909,-0.025859790988781755,-0.030993221069964428
-0.009275155084867492,-0.007218940624435929,-0.03364076475433927
-0.007523626158796638,-0.01788633573530354,-0.023295729119638765
-0.0034814932939716946,0.0026732484511454817,0.0019344049729994514
0.03309565824910378,0.03262359499223241,0.05126060193991259
0.03903021433584548,0.028171555541879716,0.045366311225178535
0.05541885019978906,0.05024944217687078,0.048632522163240724
0.06802475007880447,0.06146939129830003,0.0439679708796823
0.05226322629330739,0.07723081718404383,0.057646611160667084
0.09623744284436417,0.06780728317494948,0.09735336104670297
0.09258066817819252,0.0903752470937746,0.10405051192912029
0.048672566371681415,0.08566191322653388,0.08516486497705676
0.03809437898262659,0.0737794863900023,0.06869877036034991
0.01252264433437561,0.07668288251155184,0.05129125855338748
0.021575903471755326,0.07893541225900477,0.06534067081864216
0.015720817544808224,0.08387868160897191,0.05584980544536757
-0.014926665290493081,0.06171606239909268,0.05405159718462372
-0.03205988832244656,0.06341870321565501,0.04439803926273869
-0.03291140928270043,0.053599348724814214,0.05641588155192071
-0.018901609678202032,0.019734539823008816,0.053001946449785155
-0.020470846476814172,0.015025605577387323,0.04362045580134078
-0.023823603349912844,-0.0020727005607332183,0.04807258956916103
-0.025172200873278337,-0.010701699904158922,0.050109864415175384
-0.0017121565227661095,0.007255800481708515,0.08504698906627907
0.017299817589322936,-0.013155717437076699,0.0537595122802473
0.029144887070591464,-0.0075731574410351915,0.0821176636777258
0.021608938081863975,-0.0065822700421941235,0.07851579333915171
0.0075757839629321914,-0.01481479816470323,0.05787166002573572
-0.0016443270884208187,-0.016035457455398482,0.059417779956082044
0.0072407050660569525,-0.024583964908744666,0.052410901945227434
-0.02040989606028732,-0.028573799764394947,0.05290814919178076
-0.0075200651389522805,-0.005735801827511289,0.055626269468085875
-0.0010174834489150993,0.024254551197553164,0.08921144659723472
0.010618416491518718,0.03813266209655603,0.09377589667488906
0.029210932756122514,0.033498159329215696,0.05389376991150442
0.020544399960606793,0.02516550941015356,0.04056924200609188
0.01940064108263157,0.0186066113732597,0.01649534487869978
0.011468072884494342,0.007938620115291468,-0.002848036518994422
0.00886859831986053,0.004802306793565758,0.01209295185522034
-0.015277567475810471,-0.008545547988691197,-0.021588842611083695
-0.023955602051310393,-0.015431566636737974,-0.02288785839407132
-0.016877941619882212,-0.005436620748924417,-0.011983105485232124
0.034570626826536374,0.05263161397140802,0.0370370890686358
0.01886152129638551,0.039528406384115845,0.02285909284986517
0.05400725243199539,0.05473757192739979,0.02880794047120204
0.051378374180735244,0.0784382278270623,0.04762314984686289
0.039820738833496086,0.038746340957003106,0.032788297796221264
0.012831536010208335,-0.001782371414021357,0.02242894916481737
0.0025623077799401626,-0.013364747302977608,0.02425828140066812
-0.03555009764654938,-0.013603115747858477,0.019439364242661697
-0.020597073392212784,-0.002378374185550647,0.02272728222665557
-0.044917072137601266,-0.011809677446295968,0.006577195848276951
-0.0644532987344217,-0.002509961896226777,0.005408732585066691
-0.041611373023967,-0.013228599696656218,-0.008489820697283074
0.020746551987530438,0.03473544306331951,0.025893061679022264
0.03552569523408661,0.04676196916736221,0.030608792087353
0.036434825602836285,0.03988723881299564,0.03423376627392319
0.05040447978896075,0.012889983262151423,0.06620001785671091
0.057604712537266206,0.02576721190405618,0.06631415511170118
0.06195226898047725,0.00500903272301718,0.06002078693937982
0.054315852249199506,-0.010471629020673334,0.06714522278354491
0.021574310164740266,0.0165782494742892,0.055966936937893376
0.022377572462914705,0.05662780327669589,0.054744500084875324
-0.006652960985626227,0.030328889853353837,0.016558804601506313
-0.02480347674142477,0.024176359715873307,0.010244370148437942
-0.02885946624080214,0.017113682855181344,0.014694605928108232
0.006699893836913857,0.05932422937536293,0.04681395191539385
-0.004347817812176932,0.053101978308026,0.05045873246963182
0.009784711430077524,0.07109490388094872,0.05692581816037918
0.0061962180621924386,0.04156599646232412,0.07774525282913082
0.029849519929725128,0.02468120054262771,0.07259731124877776
0.04072812801476402,0.02841888295687882,0.06943967254117406
0.08764435030674997,0.05317329853676018,0.06674868472704383
0.056732392311763594,0.05845049087959527,0.08572380896804209
0.09145585997884502,0.08235968692180472,0.08778126201167068
0.05951236464833212,0.07637411687655254,0.06510272643716641
0.0747760550641709,0.0958088722750233,0.11397546513573815
0.06993168839987904,0.0723424657361181,0.13306686393107
0.08010547144880978,0.11824047266015415,0.1521554647850263
0.037020028162396655,0.11994021477749509,0.14701629227022822
0.0224270204860296,0.11434786635148049,0.13341846232656773
0.0017362119594156256,0.07702295330754771,0.14091651003209546
0.031552463829988345,0.11518499344520912,0.17440352277657273
0.030954714122737773,0.11878236010278945,0.19832208445799823
0.03369357022713378,0.10164746399834079,0.14743853858962416
0.03127769774927175,0.11979122955139546,0.1474290214538291
0.02612431252321838,0.1042248710504343,0.1356057084188912
0.0534104662488908,0.07927348229750159,0.1366620133745154
0.06556139560425157,0.08602148431693125,0.14949997318104258
0.04743256531514296,0.07020459673733984,0.1583463122669034
0.02562254004426116,0.08299671076155052,0.16570962812617515
0.023811245009074437,0.04940843849548667,0.1499510775436324
0.004803886105944694,0.0516284275712301,0.1277058210599296
0.006292564960674327,0.028763678321366632,0.1504051819016838
0.0124794983235969,0.05373304684083991,0.18011801479707454
0.00940595513745218,0.07219051503119431,0.19479321274730635
0.007053678294316758,0.07588551038173727,0.15875338981213696
0.00921884549392615,0.05954929917033013,0.18159347825014052
0.02091751415243218,0.039191576199388435,0.16262920421928956
0.029042443478253497,0.046896602540834775,0.15331098725758957
0.00625310837874252,0.0038000931827626766,0.12404654056893115
-0.0064797719813993555,0.02025172212685241,0.12658732630450714
-0.017515589364971326,0.0,0.07927348229750159
-0.034320997847699236,-0.024964633308258866,0.05890935619606806
-0.01987313242108256,-0.008534993058192993,0.061070407933340405
-0.035004821086395965,-0.022237887871728975,0.058913151342183855
-0.04049657940866754,-0.01886126369468396,0.029615269213596765
-0.01192855714285709,-0.012915634457796603,0.03804597921529266
-0.021905551140019235,-0.00833755450522707,0.02018630508036435
-0.009626977383640435,-0.021833998361290196,0.030725841222879684
0.01073483030154617,-0.02368100675908372,0.04679996419771515
-0.02924018965908075,-0.044267050661426076,0.02825923198777465
0.0012235425187342264,-0.029983982149529652,0.027779791897460302
0.004553046345054875,-0.03458811042056148,0.0032479032136866585
0.007662813450982104,-0.03342353350000185,0.01190561887477306
-0.016380328938317586,-0.030642807142857213,-0.02695915948261882
-0.05306746640742133,-0.06770170945273941,-0.04882106353323678
-0.06652316900510216,-0.07238104749001058,-0.07238104749001058
-0.030267424630284107,-0.04025522739737523,-0.06421490371491805
-0.06333116193421641,-0.07299370479501574,-0.08090569708949148
-0.04546767625899283,-0.0450554837331872,-0.06629143280965105
-0.033933532060646636,-0.02681210619397654,-0.04516765968352603
-0.007737108141185225,-0.02653074493557819,-0.03910371798989383
0.025093172575970393,-0.02290355133069825,-0.03105014622834236
0.042358501808756166,-0.023689580080300237,-0.0450063401889375
0.029473955514527687,-0.02246146297259586,-0.04561055967520663
0.039524128023235676,-0.007328691989637787,-0.05127132307147658
0.02102809878803657,-0.026166342993556694,-0.05536575398184907
0.019901915345257433,-0.011942474820143788,-0.046117517602931354
0.02316942601605758,-0.01155032650513173,-0.044587807280253355
0.03211928687959762,0.025274422099175037,-0.006142864285714365
0.043734848992841524,0.07611595605337827,0.0032610662591955573
0.04411976916664392,0.09340401147902805,0.014262283798396457
0.043189414024128826,0.06786574610746506,0.024878567668041297
0.041559053358241366,0.0828856696189025,0.003841832723987377
0.02570262926176272,0.06172748290693679,0.01389083757174551
0.023443141409806512,0.047155731556342576,0.019079280880222732
-0.013296004120281611,0.019530587567783107,-0.00751831840499791
-0.03921709188193638,0.008604725296413023,-0.014495904801798182
-0.05863739882267881,-0.012537776017044977,-0.03593034144836056
-0.05138011214338045,-0.016003582322686862,-0.0381055814235128
-0.0544295370192969,-0.014987073052500723,-0.02220592939991053
-0.04919424466508994,-0.011294005969631636,-0.03716482612921567
-0.04857805292454635,-0.023154158239527156,-0.03482011510791377
-0.02622180190511057,-0.02968498352217299,-0.04089243877532416
-0.023902331220840397,-0.04614056379287449,-0.02203231777889448
7.465083333075183e-05,-0.053844048789032026,0.018173516012984326
-0.01723364011217167,-0.07382408982139042,0.012684455524531683
-0.014765410204847975,-0.06970987820856597,-0.006575044996785767
-0.009631237723887747,-0.05988668774401055,0.01803523365997151
0.0037268931506591195,-0.04408313495006515,0.014923206997757307
0.029321556895481375,-0.024111723427832136,0.021907002171186813
0.02659734006481814,-0.007575155168082859,0.01180748516835046
-0.018371860419948934,-0.0333161650855618,-0.02499811623763999
0.02140747806596763,0.004929449584953802,-0.007670130766874642
0.00722705988346273,-0.012235146863966317,-0.02804292300658553
0.06030908678367525,0.054189747476986176,0.03839052872035129
0.05146288277252708,0.057115080526876666,0.04517601649681849
0.04316548184604688,0.06999104591559209,0.045216303923585305
0.06275231559633031,0.08310270651353578,0.050950820517860505
0.10301273428160787,0.09237488628409522,0.0419720931577699
0.0918617668109601,0.09716214027612276,0.038086488465616394
0.0946374589714861,0.10020494496940542,0.018983316290046133
0.045289799301377914,0.11844813507298904,0.04048125179445323
0.039197705747516055,0.109234871130111,0.04280646876797426
0.011494210836066596,0.07827114723685892,0.0307375747404549
0.025414315771802823,0.07899131546405547,0.05297497528455338
0.050351794740013674,0.11765136880733948,0.10918498626480368
0.033013347409615604,0.15459519697816204,0.11612851278864084
0.057200085561309594,0.13875880775714283,0.14437226188940377
0.05523054536170458,0.171752311408715,0.15741574979043738
0.046078558149235845,0.0943477039892373,0.15365012972043368
0.06150143377757794,0.0885656427308607,0.15073915707422506
0.031856217183626474,0.067293652372825,0.14199465140147138
0.029747826567821316,0.0829419527014789,0.17293735996802526
0.03103588663138789,0.07925234733762854,0.17894816019478482
0.015206905004523577,0.05881150884728053,0.16168790119587317
0.023849407140965787,0.095977393720015,0.20579974814544147
0.020400208165283467,0.0682899858987897,0.1948269424456511
0.031207401829384102,0.08019575288973602,0.19819079675193957
0.02832710529149714,0.08505513949838447,0.16998365008217303
0.0003188763512388017,0.056438612781212705,0.1398880885118226
0.002300766905472258,0.02987918984685575,0.15104588623853216
0.011443259181422218,0.036702735790153415,0.19697199943743166
-0.010954356861101947,0.025323097341580173,0.16759570789455874
-0.004775245190057878,0.007541568954116201,0.18058916226234886
-0.03353467303970452,-0.002014013799558271,0.09214367261188805
-0.01529675629393682,0.006552870740515304,0.095698872680242
-0.021037887153908686,0.0022843873377018844,0.06973176447791508
-0.04361408475911395,-0.043492080141471656,0.035842554506024374
-0.038517752005113474,-0.03323318825823997,0.043385350900409736
-0.01387656216894107,-0.004050176713915018,0.054523135129722046
-0.013050950202174573,-0.02877104076482105,0.06444498344797411
-0.011132133252183356,-0.03285371237557264,0.03319269396836632
-0.0270078769305651,-0.05027057316886152,0.02589369325739908
0.01113575164282037,-0.014471589695875814,0.06935266672216256
0.025601685925672253,-0.0193165815420338,0.036031830173271336
0.03199574847634704,-0.004590964680342198,0.025151050861249396
0.010650716636337753,-0.004830578976284533,0.03169486134998884
-0.0006482530460037299,-0.018650591267323154,0.006200215336116571
-0.011981514627314501,-0.039856669948904994,-0.032615682819489906
-0.013580675990341384,-0.030662111642066968,-0.032614371525654516
-0.0553230551858555,-0.05453143002791945,-0.04833589669967256
-0.03900409492291367,-0.03731437923045557,-0.03511523238818195
-0.045544814262092094,-0.006600473144860529,-0.04980548497934428
-0.04815742264097874,-0.014807991940027954,-0.047549063414398476
-0.05033400856631007,-0.05493153956792593,-0.058759233839423435
-0.010927505184868099,-0.03779089809318996,-0.06547465538843264
0.0012089187861217445,-0.01856479336003124,-0.050808583354241474
0.019839126935327966,-0.009009612633513221,-0.05882726741125862
0.031049150631818193,-0.018355161503055075,-0.03256112283285714
0.028389234899328857,-0.003900448496386339,-0.02314168670698919
0.05032543816899576,0.002690397779191562,-0.0019129184223309757
0.06577411882319205,-0.003385156647530802,-0.008199383357282342
0.06460520662078684,0.025037303302034235,0.0059197515243888405
0.058022497209250054,0.0509727738409811,0.00908449886871595
0.0494686088500195,0.054331842350510806,0.022003801692573294
0.015877168558944745,0.05563132935246334,-0.0019337566194001033
0.023689911210335157,0.061083669605849045,0.021489991162932966
0.02216828098235659,0.0738255033557047,0.06673774695853903
0.019994944501182953,0.06797292537054894,0.05215839089949377
0.010757432201211342,0.09097733512800132,0.03104827047570713
0.008875984502022122,0.0720156484503417,0.031503214325449884
0.0005732657948511498,0.05366246238714163,0.034101436501702664
0.025122707959770202,0.06110034256568859,0.051540239513883555
0.0015937778809525826,0.030770260212180416,0.01185030561343974
0.007312487499999953,0.05181754360941178,0.04771498345296768
0.011874836343934858,0.0288762794919586,0.03164436594936664
0.004445038613786686,0.028197956917365298,0.02471734576852889
0.02281147417798417,0.02993100063235462,0.055717695475354496
0.03361343858398985,0.02935399174168502,0.08182301996504507
0.01990803930972183,0.031212139906613753,0.08723979532195278
0.02743298945049323,0.04249549321868994,0.1004909033503976
-0.0004963827076549262,0.026966689870160092,0.08969758385040139
0.004843210092954817,0.011437512500000047,0.08610739597315441
0.0077910744478799,0.01589594079175825,0.08494935975944004
-0.008724496458727403,0.01007950942414106,0.10197385145894831
0.0024636240301574796,0.02281147417798417,0.09646990573336163
0.0029649515285993665,0.03367706221445032,0.08914671868598432
-0.01641676392537183,0.0002520506584023367,0.06136779360566321
-0.015519275324831468,0.009420119601425006,0.04048023934497113
-0.031020230723348814,-0.02705218126266891,0.023363584764434814
-0.016822320281745042,-0.012915255891053957,0.015588079062084403
-0.013821712255403813,-0.008289709445403658,0.01967449460216267
-0.01603588768849502,-0.01603588768849502,0.013415142779314887
-0.0008005789493310774,-0.0007390736589119301,0.028593223320692893
0.00944762840718956,-0.010006763913810321,0.02089304347751313
-0.0052336277251688055,-0.02267378915467456,0.018858170210750907
-0.006696020747350585,-0.03308710120025088,-0.007012660926860555
-0.017487569871752116,-0.03485138682751802,-0.023812487500000045
-0.01822634643814766,-0.03389198424278579,-0.018534788425866065
-0.018357709086145844,-0.025598048235975057,-0.015776554580268127
-0.020340254550657858,-0.02347009779645183,-0.0011940111483061825
0.0018718599395555252,-0.011085718146385266,0.02221800964835738
0.00944475815937999,0.0030232158966249055,0.0032760285585844793
0.03775041210035982,0.019232001241742732,0.02883328859503971
0.048146519647269084,0.04400235372747076,0.01575981281578224
0.05255739473848178,0.03428317900054612,0.020925147079941305
0.0360027208700525,0.023631412082009712,0.015145805096661594
0.02202088810845743,0.014299145087698226,-0.0019660420854646183
0.028834712574933075,0.01824452606494927,0.017491968357403402
0.03836735321821043,0.03175888733365235,0.021434319732128868
0.03817123879096299,0.06370438209002227,0.03958617320760972
0.026143777515078882,0.07851829990107533,0.042833255765925914
0.011312498617108676,0.06460078667519328,0.027497972841896128
0.0033769449062732754,0.046155756205810826,0.010699461800983835
0.0063407965237528355,0.03981930997560484,0.013201965122151004
-0.0033898184634955373,0.03586257033015513,0.011550774500822425
0.007801118723989251,0.03786502294914883,0.02635954383074289
-0.015136130327586364,0.037802222919937206,0.04093972309782142
-0.005536085316504331,0.03353129815349738,0.053408173362965425
0.0031873887610499906,0.0189358674940379,0.06377144396111784
0.019703836980832643,0.013502013301326013,0.04824808424074925
0.018474362155292336,0.022226377547319306,0.046383030316240054
0.03802232165951364,0.052080718393490294,0.06712457322976859
0.007560816353824736,0.016404401024292938,0.0349482176113098
-0.014884770015495328,-0.015420917903840625,0.015848218235522144
-0.027415312192210172,-0.031762124209071305,0.029918871384345545
-0.012469288561468644,-0.019405970015894676,0.057588606111601354
0.0006601116218202277,0.0028265636446148665,0.06760994855483776
-0.002162291964613643,0.016583080609265572,0.06350424144081897
-0.031714442307119055,0.012295803436130178,0.05260472382015739
-0.0100649333556087,0.009596708027190936,0.04580344097390916
0.07161724183547984,0.04692473616290682,0.08656656532374687
0.08179473367293781,0.06353239998711442,0.10373628885400314
0.07211804339508399,0.05716510902867366,0.09261322749698868
0.08017988005996994,0.0797913623858444,0.10023814854518942
0.0741587409210033,0.07087132783768205,0.08533024675015508
0.0844815768547637,0.07790258640451116,0.1018604562491698
0.09445311578358129,0.0644821789753837,0.1199211755734896
0.03679714543017623,0.07730328563389233,0.0949758007562191
0.05541327176621105,0.13942630845066403,0.12185530889057017
0.028594094170238837,0.11804535002573478,0.08253385474684279
0.013657600867688337,0.10835917218136767,0.0868503873191742
0.0240964027586955,0.095952023988006,0.09904980213525258
0.022289088621288197,0.10431590608812645,0.12262886577688001
0.0076957399702698515,0.10780765912032053,0.12142904434190349
0.010558925372098736,0.09974733425732567,0.11030128832787478
-0.03164247834732579,0.029632589960264816,0.07794782758888066
-0.0004954144997155376,0.0329976837230999,0.0986265057511586
-0.002300350506075802,0.03142519092109611,0.09038672441502112
-0.0013132968536251517,0.013268932191564935,0.0941190407543797
0.006322838524692734,0.0345755007213589,0.10789724020581638
0.012328141575949228,0.03410227772921026,0.11466151977111186
0.01148791556639082,0.016380804929428373,0.08191925390003232
0.027889083878251435,0.020786085581215596,0.09969620392600316
0.017568914892424934,-0.004042908847040829,0.1348197117476778
0.00021954874353214066,0.0029725475509733545,0.12136879299283092
0.004438178851519888,0.004053045196045054,0.11285140199966984
-0.004549864709941007,0.005636109439124507,0.10212892953523241
-0.007490031172647658,0.003979041601148541,0.10871002501926115
0.0012439751620544608,0.009873434054581982,0.11874552498780584
-0.0005957270705353107,0.009518544701555644,0.11021532841887069
-0.003788682717814515,0.024604759656005223,0.05496645237022731
0.008013210889350291,0.011510695155725706,0.044888205157007255
-0.00905522003389416,-0.002744839641088282,0.028594094170238837
-0.004516280359757797,0.002410837828361086,0.0157117592635954
-0.013084331254852742,-0.015382927510099788,0.01866070079003704
0.014638313222105742,0.012178003964026286,0.04669557936660519
0.011759044555723921,0.009789145801702936,0.02633030481893474
0.01787464976501847,0.014622323789515073,0.035712350244415776
-0.007132734245176097,-0.013043889722988982,-0.017034063312868913
0.012440790213788645,0.009440181275085292,0.012440790213788645
-0.00021860071416131106,-0.002236542572246451,0.0018074378156704095
0.00341068876339904,-0.007509005373321453,-0.0019152175102599594
-0.02251913910815885,-0.0031489277034699287,0.0008175841833474957
-0.007926789912229988,0.0005401123388938957,0.010418879157036012
-0.010942102665318322,0.004118402670579889,0.013676148572054455
0.023416445623807552,0.013908491947283306,0.038855466704828916
0.008590702572756702,0.010018490471120831,0.02164450541658015
0.025531670755417082,0.032588340138977545,0.02975405073003853
0.03114039576119731,0.028040475999570588,0.030518914868196693
0.022711170291862218,0.03300693163718193,0.017116260890376555
0.017491794363586752,0.0033539449180992466,0.01557279323663327
0.023529416780419494,0.01579988693375174,0.025743700132299596
0.01243171719086159,0.008486767809337487,0.023233187865687125
0.02107818867924521,0.03871674125417895,0.025167834627836956
-0.00031985285936827806,0.019573760543429367,0.029198721666279744
0.0010633613242943085,0.029358673022608524,0.02705646852828235
0.008999904191074113,0.038761004564506756,0.03096094259963508
0.008807788991310161,0.03551007006421181,0.032249323717364525
0.004850774968875467,0.028883043327388547,0.029438755754368374
-0.006245405882868516,0.013275725635039518,0.01744880308952864
0.007813710832295862,0.022880742227005205,0.03710747079330068
0.01695815343519295,0.02803232884097033,0.03833166093146775
-0.003239860862756915,0.00047977395799358763,0.03308374913390405
5.275241435188217e-05,0.007443609023355882,0.03569280736309607
-0.0006837689821762285,0.01182235068602805,0.0452195018440945
-0.01794520917257636,-0.006950692381011925,-0.0036200597023012446
-0.004633553595908514,-0.014605108834649175,0.0009640190308599721
-0.04866673502366136,-0.03884829005135707,-0.030691218659475248
-0.039381201458540155,-0.032838825134072616,0.004606503824299216
-0.027921378248216302,-0.027143829412460997,-0.00810137568618284
-0.03314333508852303,-0.026981102756432496,0.001585440892560528
-0.028052642105263197,-0.025333841635436546,0.01244519777780256
-0.025646521144549538,-0.040866795327754814,-0.0068079080289313865
-0.05361444728778666,-0.0719383296050129,-0.0451330841685059
-0.024008815286052417,-0.05602892138977745,-0.043497020342735816
-0.03258912022938892,-0.07161191299498092,-0.05036970448959659
-0.01924022986724559,-0.06177241313747899,-0.035471708894878745
-0.003602641980392535,-0.02733524300458501,-0.02686858378432045
-0.004007175004138986,-0.029290706761467337,-0.022065126307261585
0.015354260718609972,-0.02547366315789481,-0.013952471050977144
0.05026290637934385,-0.007480278745879825,-0.014378978010404917
0.05636419949322391,0.0018192359239084324,-0.012812443049405329
0.06590674265936831,0.04019817047803393,-0.00021174975958770375
0.04286831033834475,0.018559932108085358,-0.01488837939098493
0.02476172440742888,0.025379626035506187,-0.0024531036166146455
0.026205660759199854,0.03029477669696689,0.0024962874574903536
0.025437410338357967,0.028158320551885187,0.0021111204828673244
0.014857929986486038,0.03377935383977097,-0.00846789542765757
0.018907269538156697,0.07858884713599959,0.000996967142439177
0.022392859366634068,0.08965244612806243,0.02860039488177451
0.03805137548746171,0.09293533973064359,0.014668149272712835
0.05752169953514057,0.1056338542995066,0.03733618307293423
0.044026479470198714,0.0795442399299314,0.05003463579724669
0.05435301665226254,0.08840324916447964,0.056523148754974606
0.05845527671429505,0.07766250102262919,0.05021048947368426
0.04911671019307621,0.07741173765643128,0.06935239753467842
0.03593435416728743,0.06857881362129604,0.07052281058656336
0.03412670211031343,0.06034944077340739,0.10297354835990477
-0.001567141790668324,0.05852403255317069,0.07817016673213427
0.0007612351645308702,0.05426071372031118,0.08101745637845853
-0.026374933549378785,0.03263578278145688,0.06391925323011872
-0.02485712726270368,0.024806484036616838,0.0536633135177703
-0.020885340366170378,0.03946532379661943,0.07457779077331754
-0.010546308422931248,0.0376893790912747,0.11924019107932922
-0.02566150236153525,0.010511049279991346,0.1011058366873776
-0.0140245560737319,0.005421049043099312,0.09886019580825982
-0.010597900338799753,-0.01364883178878876,0.09054324380218245
-0.008721958673809253,-0.01953715131977225,0.058453020758031805
-0.008788194996523942,-0.0365652976016255,0.048605460448204296
-0.02832212084989364,-0.04575518352353567,0.02835385551190634
-0.04258439938325516,-0.05301289124119555,0.020295026386063373
-0.022289433853465074,-0.04628384403465331,0.01912087847291311
-0.006572855947087021,-0.034148756353238864,0.024139826071143223
0.007790098600607284,-0.004404820120622324,0.053861424596418205
0.020961585079803932,0.00025347598106425324,0.05452794348901894
0.023331778486332208,0.01262116335496049,0.045668847682119144
0.03860086574022664,0.01634285624069423,0.04155474907975858
0.018677824189721016,-0.014747907209454155,0.02413538565382167
0.008856988720266076,-0.027581363946910704,0.009068490662714458
0.011526904369439015,0.002715710130852458,0.013255304373859366
-0.03397066738186873,-0.024545537009717167,-0.019257550526536743
-0.04785556240128668,-0.03741281358683914,-0.05055100417623582
-0.04463696216843894,-0.024067122982920772,-0.04313407127914413
-0.04667271558132877,-0.022502183400792772,-0.05824468196968193
-0.007458444853114822,0.006407231628439149,-0.039641115954133554
0.03615588051948047,0.052392803526580434,-0.003397581709791048
0.004343558645372271,0.030029846758868484,-0.017643894019556836
0.03369127060518597,0.014990147291786363,-0.019670503949018876
0.045149588350297525,-0.0017290276735608867,-0.006126231738297597
0.03155492714844002,-0.013940991938076446,-0.013691049663620706
0.02360365471597969,-0.022242484223602425,-0.00990204689544815
-0.0008349631885675466,-0.03180620023781861,-0.015983148155173783
-0.032387480062607193,-0.00036259904419024507,-0.015105158676586445
-0.014857016912583388,0.005818155844155785,-0.021923680776592423
-0.01894480536288051,-0.015585890790680271,-0.012912507421346423
-0.0057056035806581605,0.027479394649632782,0.0022593611415384304
0.007094771659420305,0.042966626020836986,0.003946310064224839
0.012902917668212598,0.036646176672106186,0.01169708564836399
0.03796941537593662,0.054155869379705415,0.030435060673901133
0.01699481347150261,0.02426547971962946,0.03082818589720747
0.015494267521285703,-0.014238503460997079,0.0374083049512388
0.03514329856282857,0.014602681908103949,0.045071044966941295
0.013064879042187505,0.0069769555562387104,0.022071688439461338
0.0034202818082612707,0.0013244778197991343,-0.0004068399125652028
-0.004297314143872057,0.0006169862890593756,-0.01333260704989875
-0.01700716471250962,0.012332910401760041,-0.01018388838688463
-0.0012227735949804745,0.023867926965749655,-0.008697421336403218
-0.004729900435609289,0.013937834196891154,0.013570181307343034
-0.011233167619815073,0.018334898727788956,0.02425972987012983
-0.006979163646976417,0.019258757367414742,0.003372701687641737
0.011701277082837596,0.018854432482739228,0.04685193552346006
0.017931407852555814,0.0113839196047982,0.05483967424194582
0.02503070728383129,0.02445387514987532,0.06199619285104146
0.025300995598382774,0.011371615895853497,0.06614332502065094
0.030251923652185455,0.027155094900932864,0.05207950602516552
0.026170330437392482,0.029040825680012955,0.0143888243220608
0.027349095166312287,0.01158415803451872,0.02635599971757395
0.02514331677992901,0.031001897152721388,0.038195151567553716
0.025388648934702447,0.03352663851777199,0.034895521626660334
0.023370751560549293,0.05292086387193991,0.05357050160841345
0.020447766169154283,0.04990786215239628,0.06285628174642521
0.02078270908792859,0.04978581079626948,0.07484202185803512
0.016161735618427958,0.050641340378748706,0.0652850051813472
0.00922070687477347,0.03251003735365466,0.05144100432395951
0.0020111988520984505,0.04033612303531069,0.06037170400940467
-0.000639872034650379,0.02091925464689095,0.04016810780395921
-0.011808901003573414,0.0221582884655333,0.03379445624480306
-0.0074106820369036885,0.016679131086142388,0.04154087562520664
-0.012536452684113943,0.011044781094527344,0.022541993998641593
-0.005009722616447801,0.014681841105689954,0.042235622795168244
0.0038805039406571047,0.010082503730712074,0.03941613364398672
-0.00607042138208406,0.00649414036042964,0.018153527543181922
0.007142138564828302,0.0029922495683691536,0.034086912134464395
0.0003456965173496939,-0.0028057692189741583,0.03062680128842899
0.002259477425403507,-0.004294100571213079,0.048399515788945247
0.034100939700320125,0.024572146533215516,0.07570635198758
0.02097078678791856,0.014868794729803805,0.06539486052725987
0.019278774264294612,0.013180894556977784,0.0644897331034828
0.03511798766250293,0.03232145562116646,0.06588226470438974
0.019122629143039985,0.020120433345661517,0.06126813665592658
0.020831281263389446,0.018618849992732753,0.03992759710385394
0.018475883090283512,0.02622098726534461,0.048960287930554486
-0.013133452670952747,0.018664979000245056,0.03565542571785263
-0.0039739634014461555,0.023668920265382774,0.034975119402985096
-0.0015361384622547538,0.01671798349207659,0.03164527537500476
-0.02188811340144426,0.0058227872442822085,0.0159639992491079
-0.01242927314451308,0.013594020655046184,0.020176442493672272
0.004352001871102451,0.015796918786145062,0.01883643667793362
0.008324492068754477,0.03440616512581531,0.0315038601477882
0.006557698088421377,0.0230335551624569,0.018640546188863648
0.009998567562363963,-0.00019030692905935221,0.02437716335440903
0.011154348498621416,0.006942435090766834,0.02191445546286024
0.021696857576346117,0.008208948281013342,0.021498044119706846
0.014966723867860663,-0.006138223141640204,0.025984836172660914
0.004670202282188749,0.0013916546359617435,0.021540088675966306
-0.021760906393306075,-0.008752407996821969,0.00970348222434276
-0.020694644311377266,-0.016312260060697657,0.009481003641326407
-0.05592308764017377,-0.0435411449131642,-0.02568886046836998
-0.0566782326725143,-0.0463394704914651,-0.023767355458284872
-0.044757684129936554,-0.03543444311182169,-0.019308852054739457
-0.05103647366870478,-0.03575594021945854,-0.03014135220779351
-0.046868256547354756,-0.033529297996526104,-0.020391075310993892
-0.03741644867026562,-0.04997587939300737,-0.03496842551489982
-0.020593807876322725,-0.04452398886388948,-0.011649723450985113
0.004133857611746962,-0.04584434491017966,-0.02386674799509808
0.005746257400807865,-0.05035458545355015,-0.05053530955608778
0.00692852175577023,-0.03946556549346743,-0.0327971175294594
0.016951717276312967,-0.040234248352837836,-0.03235558093567839
0.016994343692464955,-0.03159855966865891,-0.037542823800098456
0.032688003097425374,-0.02348202447387761,-0.022123048706136707
0.0220257915192,-0.0017561831856142704,-0.010493220350678586
0.024600909590352337,-0.0017120335175083072,-0.01799636644223574
0.0278153812850969,0.03387780281368317,-0.011138420421131211
0.012573674881779984,0.031049972433338312,-0.016728337339462274
0.02311846424651856,0.027963319408915405,-0.008461988353719193
0.02071490046541943,0.0416225200980897,0.004378327538220656
0.007214020568012534,0.03192722626540919,-0.0026725692147723298
0.003958349118937769,0.04115140235120703,-0.010881054562557377
0.00872206479104211,0.028169013943816806,-0.01760917178321392
0.0005363760431403995,0.030173758465791276,-0.017053882634730573
-0.0049865753363005335,0.020047110810640558,-0.03131693859732078
-0.012655777775411542,0.007969902677340223,-0.03181019953221634
-0.012108882666074888,0.011856922741486963,-0.028854379985632273
-0.0064315287850436565,0.008157383533744294,-0.023698937705245775
-0.019373028432894984,-0.011336295601191674,-0.03455212090431899
-0.016516049662314052,-0.010604495660350596,-0.012342055408994239
-0.018373234384002787,-0.013034123745255623,-0.0147238424060407
-0.018916159872825467,-0.0263312314576631,0.006654527088855907
-0.019202377448246172,-0.023661676504595375,0.006653601525548682
-0.016866066297006894,-0.027687495081947244,-0.0004984099416411042
-0.010249097785887508,-0.022425674915335942,0.01826343207787696
0.00843838449782242,-0.01013448133564414,0.021469179051079375
0.0017286920275569142,-0.012801810623035263,0.02782277926839929
-0.00863869038465583,-0.030020440930630398,-0.0026970732059880486
-0.007011188146425829,-0.033676119365698864,-0.004518495991713347
0.004155955990728193,-0.014690738538253489,0.005061865409020556
-0.015509674536012943,-0.030497942994252614,-0.022771105954435655
-0.016746791688581616,-0.027015149102245298,-0.015478542896513407
-0.01821223137995211,-0.02187127816664652,-0.013892307037280772
-0.02992945643636371,-0.023428977643190463,-0.03449967542818522
-0.042618165556526255,-0.05576414407611869,-0.06577728911261092
-0.03585838731015936,-0.05088869080417725,-0.06325952505625718
-0.04333293758517286,-0.039212676655091774,-0.06451139004767514
-0.031102780383916038,-0.04226129239482722,-0.06492299587011008
-0.06061979935429278,-0.07031720386361057,-0.09605779170940781
-0.049784456289525686,-0.06094239150827538,-0.08200139216308361
-0.05443735756741489,-0.08431780204138992,-0.09359776618598306
-0.03985978490202207,-0.09496570775568965,-0.10655178537235406
-0.0762672079956813,-0.1156350050553136,-0.1421840321471678
-0.07438104536728553,-0.10439780665925864,-0.13455821302638316
-0.05630785682422007,-0.0999301570734572,-0.11315284780205793
-0.024621800500180164,-0.07892204895553308,-0.10701303179975023
-0.012029752609242633,-0.05643737550673783,-0.0819278604947292
0.027683674824940423,-0.04151215135573516,-0.062475505712784464
0.06804679812508642,-0.003558056227557719,-0.026903672250939516
0.09694779652183681,0.013286650764101581,-0.04321841201951554
0.0975334598768615,0.01951140889795898,-0.03237019196078038
0.08504158448753467,0.020849621448539333,-0.01918062467079508
0.05923117132232116,0.006953531511402109,-0.03560162611180512
0.04347128971962611,0.04811716069216993,-0.025583507369170068
0.004550737691469671,0.01329606929402242,-0.048456616474690434
-0.018822623606194487,0.03397305291605148,-0.05320928227585573
0.05152028619770791,0.10972486336597874,0.004339056302342576
0.028065680699815704,0.1346622092907232,0.0034555389833171354
0.013377558946819683,0.11763711434128708,0.0009582509630736515
0.06568013294869779,0.1371191135734072,0.023486621942786196
0.0547622552574967,0.13342129314831117,0.043969362363216545
0.07732356557161829,0.10493988785046725,0.04257998048747764
0.07236806636751543,0.07893091093480689,0.03414216765769997
0.0077077568097820084,0.0470312300000949,0.04330583401174564
0.0176174032444329,0.05260433964054321,0.06658992589412488
0.0340605379449764,0.05300155114422429,0.07354709497878431
-0.00657737393422659,0.04110282233026832,0.06280942206486032
-0.0036876802113189715,0.06609551195964136,0.0735086406962171
0.007733233670369307,0.0670965815399795,0.1184422392280039
0.021282784286948412,0.09690185217023914,0.11148633520543617
0.036051881419952206,0.10558875677913926,0.14314898211658852
0.056155038435165505,0.057243870025589255,0.17324980920866562
0.050382552265897836,0.07585972141188113,0.22073736838410704
0.05640019783423829,0.08530252891972322,0.21297438660914073
0.05659180288713964,0.05700363946406819,0.2019390415512465
0.04949643645083935,0.06176918456536818,0.20343180219510745
0.043719694413373325,0.06268729519634494,0.17420558077436576
0.03042415535739398,0.062345473169235076,0.14619736909395126
0.0367308510778495,0.08769365896165007,0.13884922960592022
0.03776035503863015,0.09715553498250715,0.15487067738322885
0.034586871901212846,0.085854944907761,0.14340694130549853
0.027149108464841407,0.09288868345920609,0.13780949284219068
0.03139564381788905,0.09915745288893527,0.17180682746188483
0.0044572293732031,0.05923264268585136,0.13030353206563056
0.015835353081838317,0.056679017247146836,0.15907317116782344
-0.015407991028576344,0.033668780519725834,0.14281258197621266
-0.025032434065410312,0.012816321908994994,0.07079384780014887
-0.027776539525872935,0.0050563481217495276,0.08129964269350808
-0.0026027688494484175,0.0318477306921374,0.11986695158025422
0.005848699491792334,0.04637012278916974,0.10601702801461634
0.031922063882579135,0.0414952321978492,0.10582754341942914
0.03144654003288751,0.044253473512836615,0.10971489926674438
0.05117823510941841,0.05448821123332696,0.12023077771404903
0.05964877328114806,0.03520559068363316,0.1259865567082372
0.06890977441318624,0.03522412388105653,0.13580187746351785
0.045892253349506223,0.04312318035118196,0.1326804635322411
0.02048371923007171,0.039580004300484604,0.13614522225047243
0.014260641007300772,0.02419244074445088,0.1257487544367724
-0.0008711323814164673,0.0387140039289833,0.10023977937649876
-0.03284723577300971,0.003953234394791491,0.06085631708238273
-0.035436146491782304,0.014147875083999938,0.048292997304749466
-0.0331188658080033,0.026637921110274906,0.0397956431912056
-0.011098691913916957,0.061017265558621636,0.06638213821647279
-0.020245199512299025,0.021191424934568152,0.05371405442100432
-0.021198330638935652,-0.0033478481861558716,0.042867034471542324
-0.010505619280879301,-0.0039929312152592504,0.03733661337466273
0.015616632640354962,-0.011454725310416634,0.03229183681929864
0.01466829992678464,-0.02107590709511688,0.03226391566047737
0.02884962065782092,-0.0032017567324712755,0.03189111421416993
-0.007482168794976426,-0.014810622476110872,0.01989181020409157
0.00467021190170417,-0.019057075912417,0.02324430271722764
0.022541462983425447,-0.0013381593483870393,0.038188880599333674
0.0036124630245283748,-0.014449474742361383,0.009393397940596477
0.0037450147431598575,-0.006887476204554689,0.0315598859435847
-0.001060963762965947,0.011097239325169804,0.01509434370814879
-0.037503254676984725,-0.005337944813912947,0.008734409693654466
-0.010738065204451856,0.007993966666612768,0.03484483043031107
-0.022584721407642477,-0.030450669252421497,0.028708579733987383
-0.03293715064783706,-0.01427503628552214,0.006613880289163133
-0.003994574461126219,0.00287290165745853,-0.0004845645673002685
-0.0016241330376221422,0.0020264857036326324,-0.00197453712964993
0.019516674913184963,0.014979926796581335,0.0033536105395397123
0.04112923150696247,0.02060125579930938,-0.0009088414490764818
0.004917814742702187,-0.01545272125504124,-0.018605002133199187
0.024048814966600458,0.0003506355127869387,-0.014465180093530537
0.020068855675481247,0.000833232473065935,-0.01823972241384297
0.027016329493600656,0.007261694214090472,0.005913817561705719
0.040976070006279244,0.03933104814829063,0.024313260419119923
0.023787867860135255,0.035247119450751326,0.02811687954970049
0.023304184253208876,0.04549476757628179,0.05709687322528857
0.038268198272297896,0.06205463466098508,0.05638544563180426
0.03680333778471479,0.0484249331488435,0.05680600711688108
0.03623698170082823,0.06106424845064044,0.028754131965500807
0.016049457220312636,0.05828457619960803,0.04317752547395021
-0.004645884112921701,0.03865140692775867,0.04163535027624306
-4.244222915132798e-05,0.03688722405215076,0.038988461187971765
-0.0036403656527182397,0.0217476672689081,0.03705337252917409
0.009341813163481937,0.02962832872897711,0.05083996530733818
-0.008874264743383384,0.034035736538884795,0.01805707053439815
-0.004862822849532195,0.031107565915098966,0.0314691088452121
-0.0055750600908044245,0.031679940269564714,0.03253956949760804
-0.015699906782364364,-0.004548761981499246,0.0026799005140288983
-0.015052590994786159,-0.018921362184037428,0.019665488957161584
-0.0327555732697007,-0.03468309430528492,-0.0006584540224336459
-0.05267145207410331,-0.046816846283084024,-0.003452000247105649
-0.02063612238617238,-0.02462846284501063,0.03589786155186566
-0.0315713101312368,-0.0368914597569788,0.009747006919369756
-0.022807369158726252,-0.0271047522706086,0.03230436485318634
-0.020304375478275714,-0.04016559884840817,0.015777942444516933
-0.011408128115101458,-0.025586621339895813,0.012075826674548068
-0.0065884833890146564,-0.04100236670628175,-0.005627606141494052
0.017230682656607113,-0.026850228845903896,-0.005686491420030553
-0.014235977547705411,-0.04741272251677816,-0.019189153516463924
-0.010618221918858771,-0.03858611865823673,-0.005863689088061828
-0.03311889314048257,-0.05472928197041366,-0.025324210801695373
-0.026225434001263617,-0.060097660566120086,-0.03032161059363063
-0.029088974173005457,-0.038841203436473695,-0.04321328602846543
-0.007428009969739647,-0.03357866561216872,-0.05186467370250162
-0.015367174673597953,-0.009355668374012034,-0.043714279150792124
-0.008700199005879958,-0.0031973799732732287,-0.04986453500963991
-0.008470455264746608,-0.02664342655607431,-0.050615702760084896
0.007911507437829066,-0.016190614432177317,-0.05248477878839069
0.016267469277892365,-0.022513942780650772,-0.049008460209555176
0.0142177874976476,-0.00497223455452418,-0.044938120624435134
0.017149943936256837,-0.0056610477515285805,-0.031102822006218965
0.017557892714841,0.01472344709487068,-0.026882615788375492
0.022854801924692195,0.0023137955322954564,-0.024598559253153206
0.019590325435277448,0.006757117198691934,-0.040975978640841154
0.013602724941563104,0.00789391529793085,-0.030996798912669914
0.008225905066053526,0.019284333655532115,-0.036500366049126695
0.0021226550629581415,0.02399456813382875,-0.03754510984342881
-0.00289043974582542,0.02116965308491404,-0.018493805153710373
-0.010675368191721116,0.011403616833631445,-0.022557967014963085
-0.013894342330142384,0.0038130754043252217,-0.00557826683865478
-0.009124416284124694,0.006326285109667759,0.0031086775990796624
-0.01742423518415564,-0.001207639312929249,-0.027818890219663297
-0.026019819184123452,-0.01502985899995598,-0.030977130780095022
-0.025815303712036997,-0.018408177458644082,-0.04050767958529487
-0.024200611250018808,-0.017512081158800746,-0.022397241538265503
-0.0241797178042759,-0.029692555482045316,-0.035185512259125126
-0.008171338555777473,-0.02156861437908495,-0.007162731636934394
-0.0037630865113537056,-0.019861479504533854,-0.017593639374780767
-0.007747060209995612,-0.027987387278857134,-0.021419384136093615
0.0054335384532432215,-0.022968279615113645,-0.015255673971003693
0.018798736609864405,-0.008114646085997854,0.01101320202691532
0.030967300094227896,0.010767406510006558,0.035020333912964295
0.026042625257651428,-0.0015372057745978085,0.019599905197347868
-0.00026719215853231285,-0.011275040590948625,0.0
0.001644203002462746,-0.004416961247799327,-0.0006207280497699462
0.03258417246516676,0.012927208851443014,0.019335275169977222
0.04345865286928184,0.03757108537522798,0.03631807374257018
0.026766212675893287,0.04564177824835553,0.029925929756819507
0.004103916121756142,0.041810156772290163,0.022632330528208035
0.0070381867150117235,0.030427128148959176,0.012382204652584626
0.0211144856983722,0.03461815340872133,0.003897696485901604
0.016814587847770752,0.020663544591446693,-0.0013507538126361976
-0.00909091771296877,0.007510118684220376,-0.012500522888636737
-0.01104876147236207,0.034118588914896664,0.0051763114746701975
-0.004806590887481611,0.034992136433342,0.01122014764429715
-0.004782842628313381,0.01769594472996409,0.0094377023153252
0.0004368409691079997,-8.733464194715654e-05,0.01067913150046715
-0.0042751647563611175,0.0040469713276120615,0.0025035445253198158
0.003490566748195254,0.024499977181612162,0.012948698353463543
0.009042003312270645,0.014951242634017141,0.010468242326896917
-0.0022256873624232564,-0.0007429982420061093,0.012174605715986237
-0.007484122128670879,-0.015537294115718045,0.02145003825578826
0.0015728122747731374,-0.0072749017058169494,0.0380348370921031
0.012443810908805914,0.008217748419110712,0.050371490541119134
0.025147886089813786,0.0221028792850223,0.053202534574447825
0.01417450727913156,0.017536989356314432,0.052762240952899775
0.009135795617680775,0.0072865220359831446,0.028100632000436936
0.014739950690199165,0.023288633454090376,0.030973652539544278
0.022972336090162162,0.018329392591120788,0.053073354516893656
0.027786242093784018,0.02523709347898498,0.06111232973052463
0.011730209338230763,0.02494651153369099,0.043083908352960686
0.010043125559999954,0.03191720312586654,0.031827081006412426
0.014276535905680633,0.03649507995618842,0.04068974582598209
0.02200468682318279,0.025870676423525432,0.05100448458718684
0.014999982758620689,0.029330733412060436,0.044720506957954965
0.011485420613446769,0.03232296215888194,0.03155594801281535
-0.02402168787066779,0.008154318066962195,-0.007509672086875354
-0.02199490139825493,0.0008287982551799027,-0.0064521328764774325
-0.014132165763428435,0.004830062859451761,0.013087503519989939
-0.020120018428269375,-0.009273887574813271,0.012624012092640064
-0.024328244262708763,-0.013076115755627015,0.004231557897859052
-0.022762018392424355,-0.003205423200208037,0.004057742448992141
-0.041606676695082175,-0.025000017241379315,-0.002293600025169361
-0.020351399712522127,-0.03454186225322472,-0.0168456010161717
0.0015690463601024925,-0.024700755873028644,-8.703767901287487e-05
0.0002575021459227782,-0.00656439880909466,0.018218353873993502
0.014666525246604221,-0.004738910125055683,0.027027040243754227
0.016333666660880368,-0.011074460976629862,0.025016455640744766
-0.02815920438309064,-0.052131905974977515,-0.02760991722227238
-0.011494208868155732,-0.05045010277645831,-0.022599107879545225
-0.015891344246194494,-0.06067285720408683,-0.030311021512683833
-0.05822456817711809,-0.058879838435906114,-0.05120564529928164
-0.07242772738717697,-0.05779293010989424,-0.05701203053435115
-0.10186211970187803,-0.09330474678111586,-0.08892535171370211
-0.11737051331756246,-0.10922270350365962,-0.11748367200556278
-0.0843319710248613,-0.11042570999870908,-0.12205788638799568
-0.04364941743337875,-0.0707456991264678,-0.07372435242138092
-0.020568317917335516,-0.04005303342268853,-0.06405172413793109
0.0028647814699638554,-0.03657672262585868,-0.06985515676446659
0.002682958744859272,-0.056745038176761714,-0.08004414871478048
0.02120615415713771,-0.07431559318901226,-0.08039215480667981
0.03186441646489108,-0.09412464846420666,-0.098417510339638
0.04101960192420742,-0.08881865903183468,-0.09890950123501989
-0.015993256939642014,-0.059112868896440685,-0.10816310834819778
-0.04282952933591219,-0.07048304819812927,-0.11737727394899389
-0.01760040594177317,-0.03824986086152209,-0.0966019897194816
-0.03663031103424004,-0.035116856437638407,-0.09192902004011946
-0.03559844157972252,-0.03756126515167968,-0.09318341968982369
-0.02834619834478883,-0.019975386347876156,-0.11141633476394847
-0.017731485795346152,0.01404355447941885,-0.09671302401128383
-0.009029531499187603,0.018263531773254505,-0.09417894168860019
0.006254830759330715,-0.021979031462383804,-0.09116980864192263
-0.03855173962525333,-0.055908630376715424,-0.09372235355830863
-0.043482432966864014,-0.07970875635022369,-0.1133699939042081
-0.0655580127420746,-0.10306328021027723,-0.15395998861688448
-0.10877120678432789,-0.1447112317221313,-0.20827252388460077
-0.13037243926568587,-0.14539138215326278,-0.22583111788256846
-0.1070401283897923,-0.12655970078092507,-0.20413749690192773
-0.08970065984507973,-0.09523806762891415,-0.14872114111965648
-0.06234145365853661,-0.07515393716616517,-0.14033990678873243
-0.04585963615120742,-0.10618140787748416,-0.14036984466161195
-0.060281874912888306,-0.12508385690704504,-0.15580816149901264
0.01376541266495966,-0.10093242430964552,-0.13470253990942876
0.03218011975243969,-0.092156049811323,-0.11029058345992386
0.002255639146200559,-0.108787004072216,-0.09627120581113809
0.01271141899965496,-0.07538845050089295,-0.05850177808869792
-0.00010407865878596278,-0.0809983934206751,-0.10119715864566334
0.014167257695799577,-0.0571707414634146,-0.10988303398728923
0.05878492739540068,-0.031541022382867066,-0.10873568306493786
0.006735860223841091,-0.0313753217917428,-0.13120495842051003
0.0031921258823540077,0.021894612575447413,-0.12598501550055574
0.01886188015993742,0.044151530670460154,-0.10765910355116301
-0.02012451203061183,0.014607959497485671,-0.11380052026646106
-0.030280916342995057,-0.021010609916785168,-0.1142476676575198
-0.033009126997197165,-0.027676661869975434,-0.10075058892899526
-0.05272950731255679,-0.038513988471886015,-0.14060592683044812
-0.04481735153707081,-0.01543509612337367,-0.13858827167557616
-0.06544333968438,-0.05794930030951895,-0.15303276125187704
-0.0707899863258651,-0.06001284124240768,-0.14663834466687634
-0.10533556114054159,-0.09430925076217442,-0.1928366339876781
-0.077690791336178,-0.10840253924476065,-0.17561869028162885
-0.06163718763950297,-0.0875129674820596,-0.1614229511332121
-0.016262889666135396,-0.0673634319884461,-0.12068295609756094
0.030242405375974904,-0.041976808912563966,-0.07219383982595852
0.07354437551305898,0.004566609831494895,-0.02695199081320839
0.05727876646043771,-0.009333867303074568,0.012356383863941393
0.11596255789935957,-0.007994130640580625,0.03580444692571827
0.11425247635552574,0.013868283017873071,0.028678829831983502
0.0944235239041275,0.029831515616879044,0.008194127362241146
0.0799955535336365,0.04162652889116736,0.012797783656250325
0.04878044253052273,0.06068540512927084,0.01983417966382436
0.02886144534777223,0.08205467907372278,0.06535306109147362
0.06274089801411353,0.1265463724146366,0.06126379836698166
0.0681794097800745,0.14036679376802327,0.07193014241550943
0.056489539202971915,0.19725473441593347,0.08434253744170067
0.05637174058172623,0.1795229847419309,0.051659698098346536
0.03390181976173498,0.14767928731487537,0.04724246716425534
0.066268810454826,0.14967276654852205,0.07222686333016201
0.06853676531031655,0.12227491378049152,0.07516539417736362
0.04704813525996107,0.09874198535752139,0.10375951131013128
0.021739150719459085,0.10203423764380654,0.0917479963061943
0.031132654674836786,0.10624540570979549,0.09740193541600926
0.0286052681575834,0.08885874769318412,0.10395934897268004
0.03596982348936626,0.08638117029924804,0.11878956714691338
0.0036672166473494796,0.06842001513951163,0.11289463176761798
0.0019233003543283745,0.07213420456884131,0.13719710312605
-0.000673520638891657,0.06720099671187839,0.15476983200422864
0.0027202856310112643,0.039794448120200485,0.1713766635866909
-0.012748030044128566,0.022434008783680938,0.16594979243603317
-0.024453356582790218,0.005435886538841565,0.20376287531030937
-0.030117004985286716,-0.002564549296642868,0.1764980399010369
-0.022980759615384646,0.009638334753957955,0.15874100447620001
-0.04779732128232429,-0.042559388846958444,0.10074339623022503
-0.029173878016812302,-0.03038749938239259,0.08817178553111213
-0.012208138864529977,-0.01905131338400857,0.0778095074663075
-0.012524281553398095,-0.011852725153016715,0.0889721287158002
0.024574854283647276,-0.0009584874732389715,0.10518508334609449
0.02225079047911025,-0.008726467287365496,0.07935685745087778
0.029623087987175594,0.0034529157212177773,0.09013235292140928
0.06309849877127809,0.014134624999999965,0.0835217313960029
0.046216363260609745,0.012477166475147903,0.08551140152294703
0.044237392179619195,0.025033679712751007,0.09391696465269218
0.044243437658474466,0.02906695115848223,0.07001810255857134
0.014487143399583357,0.026601922330097085,0.04963271887299422
0.032794804117399545,0.04944459698875664,0.05514925874678783
0.006881982215198391,0.04173252447391643,0.039060950060986845
-0.011093182790431495,0.026473791689068157,0.036367289709531896
0.004455408180024767,0.06803749690593183,0.0225824737719801
-0.013808012528724488,0.041257521744371355,0.00961630944545263
-0.03257696104488238,0.00784701347269293,-0.011353795824112448
-0.039625449964544125,-0.0015730606781344328,-0.013407140775284203
-0.05507685359541298,-0.03214051524108652,-0.03306819643308346
-0.06274912902028212,-0.04488729675281136,-0.05322205651344518
-0.0629913692332301,-0.06585738675614453,-0.06263187104101536
-0.06993201274001515,-0.06561105465429921,-0.05240381730769227
-0.04543287066259401,-0.04995731443657818,-0.038103473690306776
-0.043892963503649636,-0.07721210855919693,-0.05411133204206302
-0.05179716242844424,-0.09339985023443972,-0.0670477479609315
-0.03618154350262329,-0.08048037791716246,-0.0560193883495146
0.00030384887155329737,-0.07493443096788252,-0.02919493671891464
0.025682952245483955,-0.04841464015244504,-0.008702580833586378
0.018670684363145066,-0.03748805261299945,-0.012006711819636669
-0.0031929654440932976,-0.057191365205656486,0.0069549743670494785
0.02381925944257443,-0.04200396308227386,-0.002479420758119196
0.03614078267586683,-0.029002462287104586,-0.021383031526719835
0.01635294611684828,-0.026883337462826177,-0.028414109019900817
-0.008100475737130948,-0.028945262557848874,-0.0601554621465376
-0.01925379128598952,-0.004254076645779129,-0.0489504193977822
-0.03904769438238571,-0.012892683529335409,-0.07790099183996392
-0.0465465656347034,-0.03348556975690811,-0.09689960086375649
-0.060548855427543076,-0.0571742460868664,-0.1042752887340087
-0.053322643680143715,-0.03857900119256928,-0.11281234372358016
-0.03744178303987043,-0.01215077357824523,-0.10441574338024426
-0.050122458657844544,-0.04299084512010138,-0.12001130357501989
-0.04821481127484104,-0.05255165952710295,-0.12354816179190412
-0.047372229217661106,-0.0832002809896305,-0.12758680947738027
-0.03832023097112862,-0.0875585325984514,-0.12176418633468308
-0.010265647375714795,-0.06386391263535708,-0.11740281349002271
-0.02678664987146574,-0.08610065448199124,-0.12448804885204391
-0.020605539720178482,-0.0662523123058729,-0.09333329440389294
-0.020849026732433388,-0.07802063347500503,-0.10280651591905918
-0.010580292828898151,-0.0549203455994319,-0.08227592433413741
0.009793264204716809,-0.05604714792080445,-0.06006279570355116
0.005349323260902254,-0.04540276722916171,-0.05771008724925546
0.017108704569355294,-0.001364797900262499,-0.03480466662187729
0.0399260017390339,0.011641422619143239,-0.04619841302935127
-0.001288138630822697,-0.01492849173939087,-0.05293156663134293
0.04390297394464961,-0.00010515138440439354,-0.012254647291986286
0.03370052854395059,0.028479246798089757,-0.015735945210245444
0.0007543103204424807,-0.007480998183178329,-0.05963951884083602
-0.026495755304408945,-0.024483133308310482,-0.10564641072718296
-0.0434188905565951,-0.006659388791689706,-0.09363483507953818
-0.04446071950876533,-0.02331053325418738,-0.08568574403031545
-0.04052024891960179,-0.0288294283905446,-0.11244785021976825
-0.03501211192290907,-0.014813277594964433,-0.08008417600734216
-0.02173452523723694,0.027549138101754606,-0.05262089657963971
0.022935252839391025,0.026139532811848578,-0.030216404963417737
0.05621862674358899,0.02036636787608728,-0.036822256877677755
0.05099460492349943,0.03844066840875966,-0.00870741154029835
0.05890086747978396,0.016820836307164536,0.015433081364829357
0.06273110998312224,-0.007532095722652843,0.004021642586975153
0.042492929205632295,0.02837488146630612,0.013022795543339304
0.036210199651457,0.01997687919275706,0.01986962721184947
0.03326320000000001,0.02570540310466263,0.05491672042181446
0.01943179808993981,0.03940988351211754,0.03163406006198579
0.04130508338298902,0.11076408007218999,0.0835690950256997
0.02698512172265173,0.09165846997820566,0.08438869179887967
0.05723621617256623,0.09809511049245069,0.07249792790305586
0.07117472826086949,0.14809008002991192,0.11499129928179494
0.06556026047705882,0.12628028030377286,0.10959637786189871
0.03412793259462377,0.08427685053588391,0.11414774323183251
0.059566974614803425,0.07663156842105268,0.10477421463006677
0.03344046930226018,0.08680960847376466,0.10894397277120774
0.057183125799192144,0.09808642993055826,0.14029760626767757
0.04426714723029466,0.0829197365289523,0.10113535215090357
0.022148541753313336,0.10424790436656783,0.09593060344934004
0.03134369648804209,0.11423496028428083,0.1458512452079616
0.07772633084964377,0.12771878924402044,0.15024709126015048
0.06472431623703864,0.10941317810052249,0.1379310910532213
0.058108976460636445,0.12804309673721223,0.1724991437762741
0.04599556145137488,0.10303267517508191,0.2252090747304166
0.04200879400436883,0.09876167122195377,0.1994724848768543
0.03999613325704209,0.08624121377144917,0.1927961656578132
0.026170162028232264,0.06742125216940682,0.22549575082880305
0.010694679877610903,0.06965267283585158,0.20472871218924277
0.027548208860455302,0.10235444582101379,0.1952574066890385
0.023877298410113833,0.0900469210994028,0.17357892631578947
0.029770621987276816,0.09911569918897288,0.19452950270293573
0.027945785486034352,0.0683744392272272,0.1731674738000881
0.022762763361985322,0.063872466371443,0.15208849098336974
0.0244972573218051,0.06987399637506682,0.18140611843345253
0.00036177082391248736,0.03751993211218524,0.15604098035117045
-0.0006255585232251147,0.022212065407457602,0.1527677527519275
0.001704206685876942,0.02552798851188273,0.13773426496600394
-0.0015029528644420224,0.03719352591783937,0.1699989968921475
0.018183447398458816,0.0399672902391584,0.14711790224707974
0.02764068922193299,0.04920288665203302,0.15282391718868593
0.029175552655682557,0.05874255324669723,0.15004979611017555
0.04646956833496461,0.0580438563428911,0.1293784979876768
0.042206929407012,0.054083413222393156,0.12750314034527024
0.0393087392550142,0.0372653970104486,0.1434341218907669
-0.023729413427848237,-0.011032343905863195,0.07802114859230685
-0.009104446928886008,0.0007072849376069759,0.0998930871676966
-0.01667980059942712,0.003654478943676215,0.07227879111934499
-0.01560463832864562,0.01902542403302519,0.08411309116122004
-0.023844509719222463,0.008119164737345443,0.07856047959983811
-0.032432483077670965,0.01952803526328516,0.05778065793283321
-0.04893599551994478,-0.012876714425883586,0.009049332558513139
0.008888046274477665,-0.003939845988538743,0.021487566180209982
-0.0326000701015979,-0.03045866778008386,0.0056019928882541075
-0.03561280702687046,-0.04937412984222715,-0.011380189780778944
-0.04376927229143279,-0.051785869325196646,-0.005130996931748275
-0.04141959538754932,-0.06103164388438053,-0.005874245228294986
-0.0472643002730593,-0.07179263930885524,-0.01791590460848432
-0.01503755788601834,-0.067095665368623,-0.0166410147417925
-0.03434016602553331,-0.07452401137244755,-0.040035781232604394
-0.018356182648401827,-0.025122473696309204,-0.035877657832588714
-0.017404909012060404,-0.05733726376292502,-0.05667053260834116
-0.003868097184230965,-0.03943156375544517,-0.03592118663122946
-0.012002548462792818,-0.05759578007232641,-0.03966614017769009
-0.00977292424101038,-0.05841224105517726,-0.050767334925636336
-0.02841905559406628,-0.06322601923985154,-0.04493266390983935
-0.011264187511900814,-0.03786574905214019,-0.0502548770409572
-0.009861364031284037,-0.04323982458180189,-0.0470093123209169
0.009934442641080898,-0.015890392694063928,-0.04586506028218422
0.0014792529038737136,-0.002486380052910271,-0.05173774704356791
0.006447948669321547,-0.008104669218922994,-0.05947083120302455
0.020772619802355636,0.0026774998186225273,-0.05851755628118867
0.01931087674470731,0.002233786257747835,-0.06971922246220297
0.016665135266595757,-0.00689782009846905,-0.0735306716379922
0.016630621065488953,0.007261208476283805,-0.06780393727922802
-0.0008352264136000416,0.0016745744101698357,-0.02348996873771137
-0.0018463533973411763,0.013308397750001819,-0.04479193312497697
0.0006499535928492867,-0.003605833816352273,-0.04289521390577641
0.021639033547680146,0.03681894146679855,-0.02289745426074544
0.025538632986627043,0.03797350350571959,-0.022656854989943385
0.011668780931595303,0.03407799161376362,-0.031302643379515244
-0.004713447450465173,0.013934686130634562,-0.024458710249648578
-0.005479669461868231,0.0061073193648406125,-0.03739658463496203
-0.013873473532922488,-0.010579055111747336,-0.02630134246575345
-0.0075159879609165,-0.012555400664697165,-0.015010563219838437
-0.0249661746272962,0.00445685249183443,-0.0036839380422924147
-0.018201593769808927,-0.0016574585940599428,0.0010156033794776144
-0.010801904262209954,0.003528956166418892,0.005770625357955468
0.0011142724280011269,-0.0015744118843931064,-0.00846137197292272
0.03866267204589708,0.02791131315835434,0.0353751914983278
-0.0364847110349453,-0.0458808868929301,-0.04428314344186706
-0.07731859645959785,-0.0872179128592883,-0.0750702457845429
-0.0704381771122205,-0.06690172776009273,-0.07026632506411527
-0.054694706782783806,-0.07625055636549496,-0.04223907967032839
-0.0361835653559793,-0.05686858643484566,-0.021054582395474995
-0.03051665950313801,-0.04320762620299569,-0.01060206371262839
-0.07705447691912892,-0.04680100200945308,-0.033518473152419445
0.002336201625536796,-0.03838252636566067,-0.03250962134736456
0.04397605544683236,-0.03367101762321272,-0.04389386518385548
0.05727925730467895,-0.005983535957213342,-0.01846381093057607
0.04019907386474919,-0.014512839711591882,-0.010120668805589653
0.04368694107178217,0.0025825401693882104,0.00092080112193001
0.047359396690376795,0.013048334500246828,0.016623337667161862
0.058256160579519545,0.007605964337370732,0.006019577532332599
0.06118282935628997,-0.017532853645631532,0.00988909454405999
0.060856100755664375,0.06395405244950696,0.015138896909796515
0.01937544206170062,0.09818618708711745,0.0024046799184791554
0.032079523195952385,0.0941726450710551,0.02097060464797081
-0.001011968749180342,0.05951798340360978,-0.02127085231016272
-0.01662555022722614,0.03360537621497117,-0.025174300461831077
-0.018779352447188265,0.019804813044531522,-0.024258532117512496
-0.022970578099311228,0.04003896658472544,-0.0086358991803158
-0.02936877321037223,0.030300038552005092,-0.009245479842258446
-0.026757649753395053,0.02377952075880339,-0.010692177526950553
-0.04835045031673596,-0.015142974040632026,-0.0210359014681741
-0.03609907122567711,-0.018197195214358832,-0.03244594194860417
-0.03678587948377366,-0.04609011166762028,-0.04362660106302529
-0.021202683974207166,-0.046953493679058274,-0.034517824070291026
-0.02491573576403643,-0.04170117946334845,-0.03441239280980224
-0.015647054977737888,-0.044293924525320494,-0.06105017927485893
-0.009480469961685535,-0.0440988094025945,0.01703494547741812
-0.0032470251479994696,-0.036999392055713065,0.057553965800912536
0.00019111493629721986,-0.04853219166165762,0.04107004854952378
0.010126299351407023,-0.03545444462489896,0.021953361731941883
-0.0032589283377948497,-0.03399910758942671,-0.001536284175971506
0.003458222929072457,-0.01998308546704517,-0.000574033694241374
-0.007469098917935518,-0.029130760038764324,0.009741841018181372
-0.008518443476690915,-0.02356489861683094,0.0060211225986100845
-0.0057488357071331445,-0.016211660517301964,0.007182354723695571
0.00038208997264122234,0.00019104192714203096,-0.014954825056433379
0.004487311523530832,0.005159081019567704,-0.013131994999230895
0.02355999660659679,0.026521361239823293,-0.02079112292891774
0.01847597184066608,0.019745010644205776,-0.028135580267328153
0.029908325520341034,0.025456311728267282,-0.017306425958936583
0.02085147295497531,0.012640045963803439,-0.032213755803434344
0.03690855845355759,0.029862125865367777,-0.015553567734119865
0.024348285371480486,0.027881536038664355,-0.010149455900058748
0.006368196999982928,0.011366844753713884,-0.03771700479611929
-0.004321674101434256,0.011838886993295498,-0.024035298794927693
0.0061096156227992875,0.02932977265755889,-0.00566652102802559
0.008149911007025733,0.03025085229035854,0.009663261456544173
0.00926716784869973,0.02971539740057116,-0.0002809947493257228
-0.021375418612925957,0.01650745309421582,-0.007446441981202407
-0.0598433823624477,-0.028042749196571785,-0.04379979018392709
-0.029467275107686326,-0.018810283047542703,-0.018622834673124162
-0.045480268574817795,-0.03849439253392632,-0.03353390720424019
-0.05941704914595429,-0.054115012136132803,-0.029028854681669308
-0.05928270602259691,-0.04840681500523374,-0.029617597438558407
-0.06108876432805872,-0.061264646370023455,-0.03736790657767355
-0.040075981764217145,-0.04416073758865255,-0.03207888537776514
0.003965903192882213,-0.05892189700598321,-0.03081930424523434
-0.002919453037768565,-0.044929157764067536,-0.018300315656788864
0.01957290353606552,-0.02587833469621273,-0.014805644955475344
0.025725039729837074,-0.025570918317486677,-0.014034762536466693
0.008889776943693768,-0.0457772977786127,-0.01779016285777789
0.02235303884196227,-0.04803945229401267,-0.019241834379110038
0.024633933030590957,-0.029607447870117678,-0.0007718475490237565
0.007900414617807267,-0.030769277375994098,-0.014769746684805416
0.008783935279952528,0.02478683298843116,-0.003951007149012509
0.002908696945013581,0.00661736071200161,-0.012317396763561533
-0.011813634506060842,0.008797933618112581,-0.03003513002599679
-0.0054826415261665495,0.008939233214143687,-0.045659525635860225
-0.0025377745984706017,0.009383682524371514,-0.039477366664887326
-0.09500817804383506,-0.06466416589825533,-0.12196718501170964
-0.08044287831555703,-0.07152754112529593,-0.11252956973995272
-0.10700462357774158,-0.08848507626930519,-0.14219326472478183
-0.11117555856195749,-0.10267418604991388,-0.1429902791106476
-0.09730523966765593,-0.10684502721393284,-0.12995839053527747
-0.0884032666193489,-0.1033213838478179,-0.12625027949848236
-0.09325763590845224,-0.09281373695725219,-0.13434227266122692
-0.00981548032170663,-0.09409467332634479,-0.1376138690499758
-0.013745338598728646,-0.10630493386115672,-0.1327649639436439
0.0039003357345502674,-0.09210262771120173,-0.12003797378809195
0.0047856753364003204,-0.10623068782671542,-0.08407697715569122
0.012158000038276193,-0.09860792539427837,-0.09264308889367286
-0.014902775699844,-0.10612446527806577,-0.0982602076607273
-0.0015109755445294078,-0.08919083305393113,-0.0810488974970203
0.005818338666487271,-0.0865055663664632,-0.07793362461346552
0.0033492330023603056,-0.009175290435016838,-0.07324614383041755
0.00507223159627753,-0.007671827547614826,-0.07865062171249255
0.0038969583426160634,0.004767009595871802,-0.08413987588110061
-0.00922352014636462,0.0047856753364003204,-0.09837987603337761
0.005810118331395366,-0.0040165326525227855,-0.11043241332589118
0.0031344683247232436,0.0022678186234949354,-0.10128787938281833
0.010712373020082978,0.018238656670034232,-0.07626787816984415
0.02013561903298316,0.02079517338207471,-0.0752562149904211
0.02319342928788026,0.02949441507118454,-0.07994592063338796
0.04453315817410301,0.0454349106222788,-0.0508523917470584
0.036696255792257715,0.036696255792257715,-0.07343270052793434
0.0468665177111717,0.030137334408780272,-0.07144237100846153
0.03684953209459183,0.05492218751455616,-0.057030865545393536
0.021303688845865133,0.041504584138713205,-0.05138807735010673
0.019738263030151183,0.03492236818258954,-0.054604177422366715
-0.0010494175564128374,0.02498114488054889,0.015576645185853782
-0.007019727252408468,0.032857350999377824,0.02493344752122432
0.008875493647556378,0.041837449683792285,0.04680389880377353
0.016033242601772697,0.05639747964053296,0.06145305500428412
0.019744299498774896,0.06953675204359676,0.06524092275594048
0.010273941362869044,0.04891714360342952,0.05129589743619649
0.014387734040081453,0.03868576658581382,0.057629999670623794
0.007773904658600594,0.012560713796933022,0.03361708940021757
-0.009876327895283825,-0.0005247455081882494,0.028954192501171046
-0.021113650762358223,-0.023639939393828694,0.02072089269497541
-0.016395102629167026,0.0022971808174954453,0.03907773454463304
-0.019463936190683942,0.0017698906266561234,0.0319605648211189
0.008525958059084989,0.02026391914380394,0.0762990454253559
0.014387795918367354,0.031652168621293435,0.07447046285572184
0.03512981340560822,0.027843928911666267,0.06373867303135887
0.03580432666535756,0.03634835515603827,0.0622375235629098
0.026115467834310374,0.008940648530187128,0.04209176555648338
0.0018751953719178828,-0.004657472428354098,0.036985120487063275
-0.0012471731319146108,-0.015267937914455904,0.040268468508393614
-0.02301896516602159,-0.022521135917287313,0.045449569482288905
-0.03208935591633217,-0.011607570859939853,0.036741763532847006
-0.036858045210733784,-0.024081642857142826,0.013672506914096636
-0.028180425176271194,-0.0006254247889086818,0.01192743322624935
-0.021123162664920307,-0.002519928654345414,-0.003043351841291341
-0.015389373305383657,0.0011630365581934926,-0.022504396949383703
-0.002601456869957479,-0.001458485289269415,0.0008353451237969211
-0.013031693349284681,-0.016108948076190413,-0.01436756852573963
-0.009457524324906246,-0.029232043185985063,-0.00956047980171011
-0.009201139786712074,-0.046775996508359466,-0.01660438961597766
