"","close"
"1",30.299999
"2",30.3199995
"3",30.795
"4",30.9349995
"5",30.875
"6",30.84
"7",30.415001
"8",30.7350005
"9",31.3950005
"10",31.0249995
"11",32.1150015
"12",31.5650005
"13",29.549999
"14",29.959999
"15",30.540001
"16",29.9850005
"17",29.754999
"18",29.504999
"19",29.34
"20",29.76
"21",29.9699995
"22",29.6049995
"23",28.865
"24",29.17
"25",28.84
"26",29.58
"27",29.875
"28",30.115
"29",30.1800005
"30",30.709999
"31",30.9050005
"32",31.0550005
"33",31.24
"34",31.035
"35",30.7250005
"36",31.049999
"37",30.5300005
"38",30.7700005
"39",31.1900005
"40",31.299999
"41",31.4699995
"42",31.455
"43",31.6450005
"44",31.7749995
"45",31.465
"46",31.8500005
"47",31.6450005
"48",32.080002
"49",32.244999
"50",32.3199995
"51",32.950001
"52",32.369999
"53",32.465
"54",32.7400015
"55",33.0250015
"56",32.715
"57",32.345001
"58",33.035
"59",32.880001
"60",33.0250015
"61",32.700001
"62",33.25
"63",33.459999
"64",33.799999
"65",33.7249985
"66",33.965
"67",34.34
"68",34.4449995
"69",34.665001
"70",34.755001
"71",34.8650015
"72",34.580002
"73",35.0999985
"74",35.205002
"75",35.244999
"76",35.125
"77",35.6349985
"78",35.3600005
"79",34.4799995
"80",34.959999
"81",35.619999
"82",35.1850015
"83",35.6399995
"84",34.2350005
"85",33.7350005
"86",32.375
"87",31.8950005
"88",33.544998
"89",33.215
"90",33.8199995
"91",33.3899995
"92",32.544998
"93",33.0600015
"94",32.8149985
"95",32.1800005
"96",30.7800005
"97",31.3449995
"98",30.7649995
"99",31.1100005
"100",30.9300005
"101",32.544998
"102",32.035
"103",31.2700005
"104",32.3650015
"105",31.9799995
"106",30.8950005
"107",30.26
"108",31.0650005
"109",30.955
"110",31.66
"111",32.3899995
"112",32.035
"113",32.790001
"114",33.2700005
"115",33.080002
"116",33.330002
"117",33.404999
"118",32.7700005
"119",32.549999
"120",31.5550005
"121",31.4750005
"122",31.4449995
"123",30.5
"124",30.205
"125",30.5249995
"126",30.285
"127",30.2800005
"128",31.535
"129",32.125
"130",32.3100015
"131",31.8899995
"132",32.665001
"133",32.2599985
"134",32.299999
"135",31.2299995
"136",31.075001
"137",32.3199995
"138",32.4000015
"139",33
"140",33.825001
"141",34.0999985
"142",34.4000015
"143",34.419998
"144",34.41
"145",34.7350005
"146",35.5600015
"147",35.0099985
"148",35.4399985
"149",35.125
"150",34.7750015
"151",34.8849985
"152",34.669998
"153",33.5250015
"154",33.424999
"155",33.154999
"156",33.255001
"157",33.869999
"158",33.625
"159",32.794998
"160",32.700001
"161",32.505001
"162",32.1049995
"163",32.5699995
"164",32.66
"165",33.549999
"166",32.7400015
"167",32.915001
"168",34.080002
"169",34.459999
"170",34.9900015
"171",34.1399995
"172",34.549999
"173",34.654999
"174",35.3849985
"175",35.8199995
"176",35.669998
"177",35.8149985
"178",36.1150015
"179",36.0250015
"180",36.330002
"181",36.095001
"182",36.040001
"183",35.7249985
"184",36.459999
"185",36.3899995
"186",36.5699995
"187",36.450001
"188",36.4000015
"189",36.544998
"190",36.119999
"191",37
"192",37.380001
"193",37.2750015
"194",37.6049995
"195",37.5
"196",37.75
"197",38.119999
"198",38.165001
"199",38.3849985
"200",38.4399985
"201",37.8849985
"202",38.7299995
"203",38.334999
"204",38.215
"205",38.665001
"206",38.6500015
"207",38.3849985
"208",38.299999
"209",38.3499985
"210",38.334999
"211",38.8199995
"212",38.9449995
"213",39.5649985
"214",39.834999
"215",39.544998
"216",39.130001
"217",39.0099985
"218",39.0550005
"219",38.3899995
"220",38.4300005
"221",37.790001
"222",38.040001
"223",38.7750015
"224",38.6899985
"225",38.674999
"226",37.959999
"227",38.8950005
"228",38.8149985
"229",38.9000015
"230",38.9799995
"231",39.9300005
"232",40.095001
"233",40.4000015
"234",39.9749985
"235",40.2249985
"236",39.919998
"237",40.0250015
"238",40.450001
"239",40.2299995
"240",40.665001
"241",41.049999
"242",40.7299995
"243",41.005001
"244",41.1800005
"245",41.2400015
"246",41.3199995
"247",41.4000015
"248",41.5099985
"249",41.924999
"250",42.1049995
"251",41.924999
"252",42.035
"253",42.345001
"254",41.715
"255",41.950001
"256",41.799999
"257",41.16
"258",41.290001
"259",41.0149995
"260",41.505001
"261",41.2700005
"262",41.5699995
"263",41.595001
"264",41.3950005
"265",40.6800005
"266",41.075001
"267",41.654999
"268",41.790001
"269",42.3950005
"270",41.959999
"271",41.6150015
"272",42.1399995
"273",43.005001
"274",42.575001
"275",42.799999
"276",42.924999
"277",43.044998
"278",43.3650015
"279",43.244999
"280",43.7599985
"281",44.1899985
"282",44.244999
"283",44.174999
"284",44.3499985
"285",44.7249985
"286",45.0699995
"287",43.529999
"288",43.2750015
"289",42.9749985
"290",43.715
"291",44.1899985
"292",43.869999
"293",44.005001
"294",44.869999
"295",44.285
"296",43.7599985
"297",44.415001
"298",44.0250015
"299",43.2249985
"300",43.75
"301",43.919998
"302",43.4000015
"303",42.7599985
"304",43.580002
"305",43.7299995
"306",44.279999
"307",44.044998
"308",44.1399995
"309",44.34
"310",44.720001
"311",44.6899985
"312",45.294998
"313",47.965
"314",47.6049995
"315",47.549999
"316",48.244999
"317",48.174999
"318",48.205002
"319",48.035
"320",47.669998
"321",47.470001
"322",46.880001
"323",46.1349985
"324",46.244999
"325",46.325001
"326",45.6949995
"327",46.5699995
"328",47.2700005
"329",47.3199995
"330",46.715
"331",46.9850005
"332",46.799999
"333",47.0699995
"334",47.334999
"335",47.0649985
"336",46.049999
"337",45.1949995
"338",45.119999
"339",45.1949995
"340",45.6399995
"341",45.8899995
"342",44.994999
"343",44.8549995
"344",44.2350005
"345",44.3100015
"346",43.709999
"347",44.540001
"348",44.465
"349",44.0250015
"350",43.330002
"351",42.965
"352",43.665001
"353",43.549999
"354",43.9000015
"355",44.3499985
"356",43.380001
"357",43.084999
"358",42.465
"359",42.049999
"360",42.84
"361",42.2249985
"362",42.630001
"363",42.0550005
"364",41.919998
"365",42.75
"366",41.9850005
"367",42.0550005
"368",42.375
"369",42.715
"370",43.8650015
"371",43.869999
"372",43.505001
"373",43.580002
"374",43.4799995
"375",44.2299995
"376",44.5699995
"377",45.3950005
"378",45.924999
"379",45.744999
"380",46.255001
"381",46.6850015
"382",46.0600015
"383",45.1349985
"384",44.924999
"385",44.965
"386",44.2249985
"387",44.834999
"388",44.3549995
"389",44.619999
"390",44.674999
"391",44.9900015
"392",44.470001
"393",44.2750015
"394",43.294998
"395",42.5
"396",42.2750015
"397",42.0999985
"398",41.950001
"399",40.8600005
"400",41.3199995
"401",38.84
"402",38.9399985
"403",36.4749985
"404",38.654999
"405",36.529999
"406",37.455002
"407",37.529999
"408",38.3100015
"409",37.5999985
"410",37.6500015
"411",35.205002
"412",34.4399985
"413",34.470001
"414",35.5699995
"415",35.9449995
"416",35.540001
"417",36.169998
"418",37.744999
"419",38.2400015
"420",38.294998
"421",37.5149995
"422",36.785
"423",36.5999985
"424",37.505001
"425",37.419998
"426",36.549999
"427",36.5600015
"428",37.345001
"429",38
"430",38.709999
"431",39.3199995
"432",38.8600005
"433",38.7599985
"434",36.7700005
"435",35.049999
"436",34.41
"437",36.220001
"438",37.2599985
"439",35.75
"440",36.174999
"441",35.330002
"442",34.34
"443",35.334999
"444",36.380001
"445",36.8549995
"446",36.7400015
"447",38.220001
"448",38.1049995
"449",38.880001
"450",38.834999
"451",39.8549995
"452",38.919998
"453",40.3650015
"454",39.419998
"455",40.34
"456",41.84
"457",42.200001
"458",41.2649995
"459",42.4300005
"460",44.465
"461",44.6850015
"462",43.205002
"463",42.299999
"464",43.3499985
"465",44.330002
"466",44.255001
"467",44.450001
"468",44.6899985
"469",42.709999
"470",43.1100005
"471",44.0550005
"472",43.6450005
"473",43.674999
"474",42.465
"475",41.3549995
"476",41.799999
"477",40.915001
"478",40.6349985
"479",39.785
"480",39.7249985
"481",41.2750015
"482",41.5699995
"483",43.875
"484",43.2750015
"485",42.4350015
"486",42.584999
"487",42.720001
"488",42.334999
"489",41.3149985
"490",41.970001
"491",41.2599985
"492",40.6800005
"493",40.0999985
"494",40.0600015
"495",40.4350015
"496",39.5649985
"497",40.3899995
"498",41.080002
"499",41.1800005
"500",41.755001
"501",41.9799995
"502",41.3950005
"503",41.994999
"504",41.744999
"505",42.5600015
"506",42.6500015
"507",42.2700005
"508",42.380001
"509",42.165001
"510",43.0699995
"511",43.299999
"512",44
"513",43.7599985
"514",44.0200005
"515",44.950001
"516",43.880001
"517",44.459999
"518",44.165001
"519",44.25
"520",44.709999
"521",44.415001
"522",44.529999
"523",44.7350005
"524",44.790001
"525",45.4300005
"526",44.9000015
"527",45.6100005
"528",45.4399985
"529",45.6349985
"530",45.8050005
"531",46.0149995
"532",45.415001
"533",45.540001
"534",45.2599985
"535",44.970001
"536",45.700001
"537",46.0600015
"538",45.9850005
"539",45.9000015
"540",46.0999985
"541",45.834999
"542",46.470001
"543",46.465
"544",45.625
"545",46.330002
"546",46.25
"547",45.8100015
"548",45.205002
"549",45.2750015
"550",46.470001
"551",46.3849985
"552",46.544998
"553",47.154999
"554",46.84
"555",46.8199995
"556",46.794998
"557",47.2299995
"558",46.965
"559",47.0699995
"560",46.4799995
"561",46.825001
"562",47.705002
"563",47.869999
"564",47.3899995
"565",47.845001
"566",47.9000015
"567",48.84
"568",47.84
"569",46.959999
"570",48.1450005
"571",47.125
"572",46.044998
"573",47.2700005
"574",48.415001
"575",47.8600005
"576",48.450001
"577",49.169998
"578",49.2350005
"579",50.5
"580",50.6450005
"581",50.505001
"582",51
"583",52.084999
"584",52.6100005
"585",52.830002
"586",52.619999
"587",53.5200005
"588",53.595001
"589",53.5999985
"590",52.834999
"591",53.450001
"592",53.255001
"593",52.970001
"594",52.8650015
"595",52.595001
"596",51.5600015
"597",51.09
"598",50.875
"599",49.424999
"600",48.779999
"601",49.7700005
"602",49.630001
"603",50.4000015
"604",52.0999985
"605",51.59
"606",52.549999
"607",51.130001
"608",51.720001
"609",49.4799995
"610",48.8849985
"611",49.494999
"612",50.904999
"613",51.290001
"614",51.84
"615",50.9799995
"616",52.075001
"617",50.955002
"618",50.880001
"619",52.0699995
"620",52.3899995
"621",53.09
"622",53.0200005
"623",51.209999
"624",52.095001
"625",50.665001
"626",51.419998
"627",51.7400015
"628",51.75
"629",53.0600015
"630",52.3499985
"631",52.4399985
"632",52.744999
"633",52.785
"634",51.6850015
"635",51.0699995
"636",50.4399985
"637",50.330002
"638",51.669998
"639",51.0649985
"640",52.0649985
"641",52.095001
"642",55.9799995
"643",56.924999
"644",55.375
"645",54.279999
"646",53.744999
"647",54.1150015
"648",55.209999
"649",55.494999
"650",54.7299995
"651",54.029999
"652",53.8199995
"653",54.5999985
"654",54.950001
"655",55.7599985
"656",55.5550005
"657",55.6850015
"658",55.41
"659",55.0699995
"660",54.2400015
"661",54.715
"662",55.0200005
"663",55.125
"664",54.580002
"665",53.7350005
"666",55.5250015
"667",54.494999
"668",54.575001
"669",54.6899985
"670",54.4449995
"671",54.8549995
"672",54.244999
"673",55.0099985
"674",54.084999
"675",54.3849985
"676",56.5
"677",56.5699995
"678",57.8950005
"679",57.9350015
"680",57.8849985
"681",59.290001
"682",59.419998
"683",59.25
"684",58.7249985
"685",58.619999
"686",59.1850015
"687",58.794998
"688",58.404999
"689",57.5149995
"690",57.299999
"691",57.6150015
"692",57.419998
"693",57.7750015
"694",57.3149985
"695",58.3050005
"696",58.5099985
"697",58.970001
"698",58.8600005
"699",57.8549995
"700",57.6800005
"701",57.7299995
"702",57.1150015
"703",58.0699995
"704",58.91
"705",59.4850005
"706",59.544998
"707",58.8650015
"708",58.8499985
"709",57.7700005
"710",58.584999
"711",58.0099985
"712",58.0600015
"713",58.540001
"714",60.9000015
"715",59.959999
"716",60.8899995
"717",61.595001
"718",60.3199995
"719",58.8050005
"720",58.6899985
"721",58.7350005
"722",58.7249985
"723",58.154999
"724",57.625
"725",57.8100015
"726",60.0250015
"727",60.7750015
"728",60.875
"729",61.6850015
"730",61.505001
"731",61.1949995
"732",60.950001
"733",61.3199995
"734",62.1349985
"735",60.470001
"736",60.154999
"737",59.7299995
"738",61.6049995
"739",60.6850015
"740",61.919998
"741",62.5200005
"742",62.2750015
"743",62.6049995
"744",64.9649965
"745",65.0999985
"746",66.2350005
"747",65.6050035
"748",67.1949995
"749",66.6299975
"750",67.6200025
"751",67.3700025
"752",66.5599975
"753",66.3499985
"754",67.675003
"755",69.2750015
"756",68.875
"757",69.7350005
"758",69.1299975
"759",70.114998
"760",70.699997
"761",70.885002
"762",71.050003
"763",70.5149995
"764",70.0699995
"765",69.5650025
"766",70.989998
"767",71.364998
"768",71.385002
"769",71.705002
"770",71.989998
"771",72.1050035
"772",70
"773",70.529999
"774",70.114998
"775",68.9349975
"776",70.279999
"777",69.470001
"778",69.1849975
"779",69.165001
"780",68.9850005
"781",69.4400025
"782",69.675003
"783",68.2249985
"784",69.5550005
"785",69.5
"786",69.6949995
"787",67.8550035
"788",65.7549975
"789",65.040001
"790",66.1600035
"791",65.1500015
"792",66.3399965
"793",67.330002
"794",67.330002
"795",67.404999
"796",67.794998
"797",68.1100005
"798",67.7249985
"799",67.7350005
"800",68.669998
"801",68.8899995
"802",69.5699995
"803",70.760002
"804",71.114998
"805",70.6500015
"806",70.550003
"807",70.4349975
"808",70.5049975
"809",68.6449965
"810",67.9850005
"811",66.9449995
"812",67.0199965
"813",66.709999
"814",66.970001
"815",67.080002
"816",66.845001
"817",66.3600005
"818",66.949997
"819",65.864998
"820",65.7249985
"821",66.324997
"822",67.330002
"823",68.8050005
"824",68.125
"825",65.720001
"826",67.2750015
"827",66.199997
"828",70.324997
"829",70.794998
"830",71.7750015
"831",72.4000015
"832",72.489998
"833",73.455002
"834",72.4649965
"835",73.510002
"836",73.5699995
"837",72.5999985
"838",74.239998
"839",76.1399995
"840",75.8799975
"841",76.6100005
"842",77.5699995
"843",76.959999
"844",77.0650025
"845",76.6050035
"846",78.404999
"847",78.2350005
"848",77.7750015
"849",79.419998
"850",78.529999
"851",79.470001
"852",78.7750015
"853",78.4300005
"854",78.415001
"855",78.665001
"856",78.550003
"857",78.154999
"858",76.8050005
"859",77.5699995
"860",76.779999
"861",74.9950025
"862",75.635002
"863",77.459999
"864",77.135002
"865",75.949997
"866",75.4749985
"867",77.635002
"868",76.915001
"869",78.0550005
"870",78.2850035
"871",77.084999
"872",75.040001
"873",74.449997
"874",73.3399965
"875",73.915001
"876",74.5
"877",74.5149995
"878",73.205002
"879",74.220001
"880",74.540001
"881",74.794998
"882",76.209999
"883",76.614998
"884",78.2649995
"885",78.0199965
"886",79.0149995
"887",78.864998
"888",78.4950025
"889",77.419998
"890",78.4300005
"891",80
"892",79.580002
"893",79.864998
"894",79.5650025
"895",78.540001
"896",79.364998
"897",78.5550005
"898",80.584999
"899",80.5250015
"900",80.220001
"901",81.3799975
"902",81.1800005
"903",80.9449995
"904",80.709999
"905",80.544998
"906",80.915001
"907",80.845001
"908",80.669998
"909",81.3799975
"910",81.1849975
"911",79.385002
"912",79.294998
"913",78.404999
"914",79.4850005
"915",79.5550005
"916",80.074997
"917",81.1200025
"918",80.135002
"919",78.8799975
"920",77.8799975
"921",78.095001
"922",78.1050035
"923",78.6050035
"924",79.470001
"925",80.2850035
"926",79.625
"927",80.8199995
"928",81.8550035
"929",82.209999
"930",81.4349975
"931",81.220001
"932",82.5999985
"933",82.6800005
"934",83.904999
"935",83.9950025
"936",83.1399995
"937",81.709999
"938",81.7350005
"939",82.3199995
"940",83.324997
"941",82.635002
"942",83.529999
"943",83.404999
"944",83.3199995
"945",83.2450025
"946",85.449997
"947",83.955002
"948",81.404999
"949",81.239998
"950",82.364998
"951",83.375
"952",83.0650025
"953",82.739998
"954",83.1100005
"955",87.2350005
"956",87.885002
"957",88.3050005
"958",90.0599975
"959",89.2249985
"960",89.7300035
"961",90.959999
"962",90.4449995
"963",92.7549975
"964",90.830002
"965",91.290001
"966",91.375
"967",91.7300035
"968",91.6600035
"969",91.4000015
"970",89.8199995
"971",90.7850035
"972",91.080002
"973",91.2549975
"974",92.3099975
"975",92.790001
"976",92.449997
"977",92.324997
"978",92.3799975
"979",91.0999985
"980",91.6600035
"981",91.8899995
"982",92.095001
"983",92.5650025
"984",92.2699965
"985",92.029999
"986",91.830002
"987",90.830002
"988",91.4749985
"989",90.8899995
"990",93.919998
"991",93.3550035
"992",93.675003
"993",91.175003
"994",91.959999
"995",91.455002
"996",91.199997
"997",91.8050005
"998",92.614998
"999",92.6500015
"1000",93.3099975
"1001",92.75
"1002",93.790001
"1003",94.040001
"1004",93.8899995
"1005",94.2350005
"1006",94.830002
"1007",94.470001
"1008",94.705002
"1009",93.760002
"1010",94.1399995
"1011",94.7350005
"1012",95.0650025
"1013",95.290001
"1014",93.8799975
"1015",95.4449995
"1016",95.3499985
"1017",93.834999
"1018",94.739998
"1019",95
"1020",93.580002
"1021",93.4449995
"1022",90.800003
"1023",91.595001
"1024",91.2149965
"1025",91.5999985
"1026",92.334999
"1027",91.1800005
"1028",88.4349975
"1029",88.6200025
"1030",88.6100005
"1031",89.459999
"1032",91.2699965
"1033",91.9649965
"1034",92.580002
"1035",92.8799975
"1036",93.614998
"1037",94.449997
"1038",93.294998
"1039",93.529999
"1040",94.375
"1041",94.9349975
"1042",94.260002
"1043",95.385002
"1044",96.5650025
"1045",96.845001
"1046",98.9100035
"1047",98.529999
"1048",100.095001
"1049",99.7699965
"1050",100.0699995
"1051",100.0350035
"1052",100.1500015
"1053",98.7549975
"1054",98.6050035
"1055",97.455002
"1056",97.290001
"1057",97.9800035
"1058",98.9800035
"1059",97.580002
"1060",97.3700025
"1061",97.5599975
"1062",96.6050035
"1063",96.4349975
"1064",95.205002
"1065",94.7649995
"1066",95.404999
"1067",96.7300035
"1068",98.3199995
"1069",98.6299975
"1070",98.6849975
"1071",98.8799975
"1072",96.5350035
"1073",96.25
"1074",97.845001
"1075",94.9800035
"1076",93.9100035
"1077",94.279999
"1078",94.2649995
"1079",95.8150025
"1080",99.7300035
"1081",98.2699965
"1082",98.1800005
"1083",98.1500015
"1084",97.2549975
"1085",96.489998
"1086",95.7350005
"1087",96.5
"1088",96.8099975
"1089",96.3199995
"1090",97.5899965
"1091",97.9449995
"1092",97.7350005
"1093",99.3700025
"1094",98.1399995
"1095",98.3099975
"1096",99.705002
"1097",98.864998
"1098",98.279999
"1099",97.3150025
"1100",97.6800005
"1101",98.0199965
"1102",97.845001
"1103",98.584999
"1104",98.175003
"1105",99.4300005
"1106",99.0599975
"1107",100.125
"1108",100.5
"1109",100.8050005
"1110",101.165001
"1111",100.8600005
"1112",101.9300005
"1113",101.574997
"1114",102.4649965
"1115",102.5550005
"1116",102.9000015
"1117",102.800003
"1118",101.790001
"1119",102.135002
"1120",101.510002
"1121",101.2549975
"1122",101.794998
"1123",101.6100005
"1124",102.2850035
"1125",102.1849975
"1126",101.5149995
"1127",102.2350005
"1128",101.290001
"1129",102.0250015
"1130",105.074997
"1131",104.4300005
"1132",104.154999
"1133",105.080002
"1134",104.1900025
"1135",103.4000015
"1136",103.9100035
"1137",103.6949995
"1138",104.0149995
"1139",103.9950025
"1140",102.779999
"1141",102.8949965
"1142",103.8499985
"1143",104.7750015
"1144",104.375
"1145",105.0550005
"1146",105.154999
"1147",105.010002
"1148",104.4349975
"1149",104.334999
"1150",102.4950025
"1151",102.2149965
"1152",99.1800005
"1153",99.1949995
"1154",100.3099975
"1155",99.1050035
"1156",99.4449995
"1157",98.6600035
"1158",100.1100005
"1159",99.5899965
"1160",99.7649995
"1161",101.0049975
"1162",100.7850035
"1163",101.135002
"1164",101.885002
"1165",102.3150025
"1166",102.040001
"1167",102.540001
"1168",102.2750015
"1169",103.114998
"1170",103.2300035
"1171",102.6200025
"1172",102.720001
"1173",102.9300005
"1174",102.595001
"1175",101.7649995
"1176",101.8099975
"1177",101.9800035
"1178",101.959999
"1179",100.7300035
"1180",101.2300035
"1181",100.709999
"1182",99.8399965
"1183",99.8550035
"1184",100.260002
"1185",100.915001
"1186",101.580002
"1187",101.404999
"1188",99.8399965
"1189",99.1399995
"1190",100.2699965
"1191",98.705002
"1192",99.2249985
"1193",99.7300035
"1194",98.3700025
"1195",95.584999
"1196",95.584999
"1197",95.925003
"1198",95.635002
"1199",93.209999
"1200",94.7649995
"1201",93.0149995
"1202",91.7750015
"1203",88.294998
"1204",88.790001
"1205",90.25
"1206",90.915001
"1207",93.625
"1208",95.5899965
"1209",98.0199965
"1210",96.8550035
"1211",97.449997
"1212",97.925003
"1213",96.300003
"1214",97.6949995
"1215",96.0250015
"1216",96.175003
"1217",101.845001
"1218",100.1849975
"1219",99.2350005
"1220",102.625
"1221",103.044998
"1222",103.449997
"1223",103.135002
"1224",102.6299975
"1225",101.949997
"1226",102.614998
"1227",101.949997
"1228",102.665001
"1229",104.25
"1230",105.330002
"1231",106.330002
"1232",107.675003
"1233",107.7850035
"1234",107.699997
"1235",108.4749985
"1236",109.4100035
"1237",109.9349975
"1238",109.5650025
"1239",111.6299975
"1240",111.8550035
"1241",111.425003
"1242",111.419998
"1243",112.845001
"1244",110.425003
"1245",111.300003
"1246",109.9100035
"1247",109.0550005
"1248",108.330002
"1249",111.1299975
"1250",113.5049975
"1251",113.949997
"1252",114.800003
"1253",115.5350035
"1254",115.5599975
"1255",115.794998
"1256",116.2300035
"1257",115.830002
"1258",115.574997
"1259",114.699997
"1260",111.739998
"1261",111.4649965
"1262",111.959999
"1263",114.9400025
"1264",113.4850005
"1265",113.125
"1266",113.4950025
"1267",113.4850005
"1268",113.0999985
"1269",115.1900025
"1270",114.080002
"1271",114.0149995
"1272",115.675003
"1273",113.904999
"1274",113.9100035
"1275",112.9800035
"1276",110.8700025
"1277",112.8550035
"1278",111.4400025
"1279",111.864998
"1280",113.449997
"1281",113.7249985
"1282",115.1849975
"1283",115.4300005
"1284",113.4100035
"1285",114.1200025
"1286",114.1100005
"1287",116.5149995
"1288",118.385002
"1289",117.925003
"1290",118.1200025
"1291",117.75
"1292",118.3199995
"1293",118.2450025
"1294",118.385002
"1295",117.834999
"1296",117.919998
"1297",117.6900025
"1298",118.8499985
"1299",117.2699965
"1300",117.669998
"1301",117.7249985
"1302",115.9850005
"1303",116.1449965
"1304",113.834999
"1305",112.5899965
"1306",114.8499985
"1307",113.955002
"1308",115.040001
"1309",113.6299975
"1310",114.8199995
"1311",113.084999
"1312",114.529999
"1313",113.2149965
"1314",112.7450025
"1315",111.2300035
"1316",110.6500015
"1317",111.4800035
"1318",112.2450025
"1319",112.7699965
"1320",112.2300035
"1321",111.790001
"1322",112.1100005
"1323",112.449997
"1324",113.0650025
"1325",114.169998
"1326",114.75
"1327",114.794998
"1328",113.9800035
"1329",113.635002
"1330",113.375
"1331",113.3050005
"1332",113.8399965
"1333",113.5250015
"1334",113.199997
"1335",112.9400025
"1336",111.654999
"1337",110.425003
"1338",110.3799975
"1339",111.084999
"1340",110.779999
"1341",112.2750015
"1342",112.5149995
"1343",110.790001
"1344",111.0250015
"1345",112.455002
"1346",114.5250015
"1347",113.665001
"1348",112.2450025
"1349",112.699997
"1350",114.4000015
"1351",115.8499985
"1352",115.4649965
"1353",114.9950025
"1354",114.4649965
"1355",114.614998
"1356",114.595001
"1357",113.3600005
"1358",114.5699995
"1359",114.9100035
"1360",114.4449995
"1361",114.5149995
"1362",114.125
"1363",114.9950025
"1364",114.385002
"1365",114.3150025
"1366",114.050003
"1367",114.625
"1368",115.9400025
"1369",116.9950025
"1370",116.625
"1371",115.43
"1372",116
"1373",116.669998
"1374",117.809998
"1375",117.300003
"1376",118.169998
"1377",118.290001
"1378",117.970001
"1379",117.739998
"1380",118.010002
"1381",114.980003
"1382",114.720001
"1383",116.5
"1384",115.910004
"1385",115.099998
"1386",115.059998
"1387",113.099998
"1388",112.639999
"1389",114.900002
"1390",116.529999
"1391",117.610001
"1392",116.980003
"1393",111.82
"1394",111.800003
"1395",110.849998
"1396",108.209999
"1397",108.089996
"1398",105.629997
"1399",103.25
"1400",102.389999
"1401",106.919998
"1402",108.57
"1403",108.519997
"1404",108.379997
"1405",107.870003
"1406",106.540001
"1407",106.589996
"1408",105.209999
"1409",103.919998
"1410",106.610001
"1411",104.410004
"1412",104.029999
"1413",103.519997
"1414",104.699997
"1415",104.260002
"1416",104.57
"1417",102.5
"1418",99.870003
"1419",97.209999
"1420",92.260002
"1421",91.050003
"1422",93.099998
"1423",95.190002
"1424",96.110001
"1425",95.290001
"1426",91.349998
"1427",93.529999
"1428",93.980003
"1429",93.309998
"1430",96.400002
"1431",96.099998
"1432",96.639999
"1433",96.720001
"1434",94.160004
"1435",94.279999
"1436",95.07
"1437",94.459999
"1438",93.190002
"1439",93.449997
"1440",91.620003
"1441",89.940002
"1442",88.110001
"1443",88.339996
"1444",84.510002
"1445",85.949997
"1446",87.690002
"1447",90.129997
"1448",92.660004
"1449",94.589996
"1450",93.400002
"1451",94.309998
"1452",95.769997
"1453",95.970001
"1454",97.339996
"1455",97.18
"1456",97.32
"1457",99.260002
"1458",100.739998
"1459",101.18
"1460",101.379997
"1461",100.639999
"1462",103.620003
"1463",103.989998
"1464",103.93
"1465",102.93
"1466",104.330002
"1467",104.279999
"1468",104.260002
"1469",104
"1470",104.190002
"1471",103.860001
"1472",103.209999
"1473",103
"1474",101.730003
"1475",101.120003
"1476",101.610001
"1477",99.209999
"1478",100.830002
"1479",101.949997
"1480",101.709999
"1481",104.230003
"1482",103.370003
"1483",104.620003
"1484",105.470001
"1485",105.489998
"1486",106.459999
"1487",106.209999
"1488",105.739998
"1489",106.760002
"1490",105.339996
"1491",104.300003
"1492",105.959999
"1493",104.989998
"1494",102.75
"1495",101.550003
"1496",100.879997
"1497",98.730003
"1498",97.730003
"1499",98.550003
"1500",100.220001
"1501",98.239998
"1502",96.290001
"1503",97.230003
"1504",98.760002
"1505",100.239998
"1506",100.389999
"1507",99.900002
"1508",100.580002
"1509",99.769997
"1510",98.82
"1511",97.959999
"1512",98.309998
"1513",96.470001
"1514",95.25
"1515",94.489998
"1516",94.449997
"1517",95.120003
"1518",93.050003
"1519",93.57
"1520",91.900002
"1521",91.599998
"1522",93.519997
"1523",91.919998
"1524",93.160004
"1525",91.110001
"1526",92.580002
"1527",92.800003
"1528",92.089996
"1529",95.120003
"1530",95.589996
"1531",93.040001
"1532",95.110001
"1533",95.699997
"1534",92.870003
"1535",89.650002
"1536",90.989998
"1537",91.339996
"1538",89.269997
"1539",91.779999
"1540",93.620003
"1541",95
"1542",94.690002
"1543",95.629997
"1544",96.720001
"1545",94.870003
"1546",95.68
"1547",97.010002
"1548",98.160004
"1549",96.529999
"1550",99.580002
"1551",99.330002
"1552",100.300003
"1553",102.489998
"1554",103.370003
"1555",101.510002
"1556",102.279999
"1557",102.910004
"1558",105.010002
"1559",104.739998
"1560",104.760002
"1561",106.610001
"1562",109.400002
"1563",108.900002
"1564",108.889999
"1565",109.839996
"1566",109.139999
"1567",108.949997
"1568",109.400002
"1569",110.57
"1570",111.900002
"1571",111.489998
"1572",113.110001
"1573",112.190002
"1574",111.43
"1575",112.080002
"1576",110.610001
"1577",111.830002
"1578",111.68
"1579",112.940002
"1580",114.230003
"1581",114.510002
"1582",115.349998
"1583",115.75
"1584",116.550003
"1585",116.07
"1586",110.260002
"1587",113.190002
"1588",112.599998
"1589",113.550003
"1590",112.989998
"1591",112.769997
"1592",110.389999
"1593",111.239998
"1594",109.5
"1595",108.589996
"1596",108.580002
"1597",108.309998
"1598",107.440002
"1599",108.730003
"1600",107.419998
"1601",107.489998
"1602",106.699997
"1603",108.160004
"1604",107.010002
"1605",106.389999
"1606",105.639999
"1607",106.209999
"1608",106.43
"1609",107.760002
"1610",108.32
"1611",107.699997
"1612",108.599998
"1613",107.68
"1614",107.980003
"1615",108.199997
"1616",107.669998
"1617",108.120003
"1618",107.769997
"1619",110.949997
"1620",110.43
"1621",109.239998
"1622",107.690002
"1623",107.080002
"1624",106.620003
"1625",106.959999
"1626",108.18
"1627",108.419998
"1628",108.059998
"1629",107.809998
"1630",111.220001
"1631",102.730003
"1632",98.690002
"1633",100.559998
"1634",102.489998
"1635",104.150002
"1636",104.519997
"1637",102.650002
"1638",102.970001
"1639",103.029999
"1640",106.32
"1641",106.610001
"1642",108.699997
"1643",109.470001
"1644",108.629997
"1645",109.269997
"1646",109.300003
"1647",108.379997
"1648",110.029999
"1649",108.589996
"1650",107.650002
"1651",106.589996
"1652",106.760002
"1653",106.089996
"1654",105.480003
"1655",104.709999
"1656",104.669998
"1657",103.690002
"1658",104.330002
"1659",104.099998
"1660",104.43
"1661",104.480003
"1662",104.370003
"1663",104.690002
"1664",104.739998
"1665",103.989998
"1666",104.459999
"1667",103.650002
"1668",103.589996
"1669",103.769997
"1670",104.730003
"1671",105.209999
"1672",106.440002
"1673",106.389999
"1674",106.75
"1675",105.75
"1676",107.599998
"1677",107.279999
"1678",105.879997
"1679",105.980003
"1680",107.040001
"1681",107.620003
"1682",106.730003
"1683",105.300003
"1684",100.860001
"1685",102.760002
"1686",101.160004
"1687",100.68
"1688",101.239998
"1689",100.209999
"1690",101.080002
"1691",101.260002
"1692",102.459999
"1693",103.139999
"1694",103.269997
"1695",102.139999
"1696",102.449997
"1697",103.57
"1698",102.059998
"1699",103.360001
"1700",103.440002
"1701",102.050003
"1702",101.580002
"1703",102.190002
"1704",93.730003
"1705",93.849998
"1706",92.300003
"1707",91.940002
"1708",92.120003
"1709",92.599998
"1710",92.660004
"1711",92.809998
"1712",92.559998
"1713",92.660004
"1714",92.379997
"1715",93.239998
"1716",91.220001
"1717",92.519997
"1718",93.349998
"1719",92.870003
"1720",93.129997
"1721",92.739998
"1722",92.379997
"1723",91.75
"1724",92.809998
"1725",94.349998
"1726",94.739998
"1727",95.290001
"1728",96.870003
"1729",95.769997
"1730",96.050003
"1731",96.230003
"1732",96.360001
"1733",96.610001
"1734",95.190002
"1735",96.190002
"1736",96.620003
"1737",97.589996
"1738",98.129997
"1739",97.349998
"1740",98
"1741",95.93
"1742",95.239998
"1743",94.580002
"1744",95.989998
"1745",96.220001
"1746",98.18
"1747",99.410004
"1748",99.300003
"1749",98.650002
"1750",97.050003
"1751",96.169998
"1752",96.099998
"1753",95.919998
"1754",96.220001
"1755",95.639999
"1756",95.870003
"1757",95
"1758",94.690002
"1759",95.849998
"1760",94.669998
"1761",95.309998
"1762",94.760002
