0.0,0.0,0.0
0.0,0.0,0.0
0.0,0.0,0.0
0.0,0.0,0.0
0.0,0.0,0.0
0.0,0.0,0.0
0.0,0.0,0.0
-0.044192677070828336,0.0,0.0
-0.06974651267436625,0.0,0.0
-0.06532438478747198,0.0,0.0
-0.08854790419161676,0.0,0.0
-0.07372684317107936,0.0,0.0
-0.017571019428748325,0.0,0.0
-0.04330289193302901,0.0,0.0
-0.03446110369730748,0.0,0.0
-0.018139309900032246,-0.08620948379351737,0.0
-0.005106111377054416,-0.0647967601619919,0.0
0.03145273876981193,-0.0633855331841909,0.0
0.03287449392712553,-0.0452095808383233,0.0
0.013867002836432439,-0.03487587189679746,0.0
0.023466709092355445,-0.004102484712439052,0.0
0.0575609756097562,-0.010045662100456569,0.0
0.06642581492733385,0.019546275217834953,0.0
0.05717722534081804,0.06280232183166726,0.0
0.0383757961783439,0.04052975905536927,0.0
0.01074004390090941,0.058799375872546696,0.0
-0.010957413739508943,0.03052631578947365,0.0
-0.018809264728742437,-0.005357705641348935,0.0
-0.04750922509225097,-0.014398218121072216,0.0
-0.03772713273791185,0.016097560975609788,0.0
-0.06000151710536304,0.01748912061745624,-0.0702280912364946
-0.011654654194141864,0.03368083400160387,-0.03329833508324582
-0.005661987124796542,0.020700636942675116,-0.04399701715137961
0.006285848982478174,0.003998118532455244,-0.04139221556886229
0.01798162230671733,-0.00132110662107566,-0.03615090377259447
0.04156577885391449,0.003031245142235464,-0.0010836752070592644
0.008961433829412628,-0.030596555965559793,-0.04033485540334864
-0.008553905745642368,-0.054049892208192146,-0.03556009105895283
-0.03219550038789764,-0.053705529849048105,0.0057239600128990145
-0.010218408736349362,-0.027066400858763894,0.012366363491303631
0.0014054813773718032,-0.0052741797874816315,0.05321507760532154
0.0008559645163801544,0.010607370157932023,0.041457489878542544
-0.00612165827198776,0.01600126742712291,0.010557831705010946
-0.01562252180808881,0.0018563357546407568,-0.012568610293532722
-0.05428943512941561,-0.07033125300048013,-0.05536585365853661
-0.044889779559118194,-0.038492575855390544,-0.021676656539945813
-0.09512175900386168,-0.10923196276183098,-0.07923015236567771
-0.10089668615984404,-0.10054602184087354,-0.08192675159235663
-0.11802208054734883,-0.11423440306082608,-0.11069300721229229
-0.09246842351473558,-0.09423391175783975,-0.09543052533416227
-0.05743978087488919,-0.09337466098411476,-0.09062645732939528
0.03218865651088742,-0.04892942109436945,-0.07802890528905293
0.02274443978178761,-0.008139345596614032,-0.06174930705266397
0.03744992161644323,-0.04513026052104205,-0.09641204581658201
0.05741045876333366,-0.039088974702498176,-0.06509737770280617
0.06805359661495063,-0.05528265107212478,-0.060265260218723415
0.02087628865979375,-0.07611568962836267,-0.06631570676514495
0.022820512820512836,-0.0669733354124434,-0.05204372623574139
0.0337696989910781,-0.001208410537339817,0.0006456820016141912
0.03430165763991471,0.08477493760220337,0.008481357017122758
0.1391034251175285,0.13881661770877038,0.09498063266623624
0.1309767899614533,0.2010102769552344,0.06982156710628394
0.12314295146913186,0.1801231463012749,0.061466458658346525
0.12412690398047643,0.17753878702397757,0.04302334660732427
0.11690482159271325,0.14828178694158067,0.040074702357793215
0.10235521858364238,0.168119658119658,0.0590468810538549
0.06862900666455087,0.12307179187859577,0.06812053925455991
-0.01820325742501289,0.09322172985393073,0.08432362038092137
-0.019216823785351743,0.13540967092008055,0.0841683366733467
-0.0034538506760728896,0.11219552202083168,0.06872093939632763
0.005240305434945265,0.10828656322218558,0.04701754385964913
-0.020424958850815425,0.1018261381805942,0.017959881822422658
-0.03856003512109448,0.09801955377287544,0.024481521908623228
-0.028658400772143332,0.05525084691079213,0.05397567066784836
-0.015763398889055653,0.040304665185655335,0.12849642826405033
-0.017892791127541496,-0.0210774559658043,0.11481326059588759
-0.021532335373497646,-0.037781000725163216,0.15563490681066022
-0.03857610962168608,-0.051293356848912536,0.1195906686323822
0.0062628885664094795,-0.01369965563707151,0.16140691114245417
0.005783866057838591,-0.011222504863085441,0.13539518900343633
-0.017656500802568233,-0.0596326918855636,0.09846153846153854
-0.003660768761440041,-0.030069047442274937,0.08930209288751755
-0.0011292629677031219,-0.004053445428614262,0.08879041523059254
-0.008063908357826461,-0.026839186691312352,0.10493619879113499
7.74593338498786e-05,-0.04793156846840203,0.05888624620684004
-0.016091081593927928,-0.034629133154602365,0.06990756025090789
0.008852905569007384,0.018330405560223063,0.12202305815029887
0.02505446623093681,0.002587519025875216,0.10086070025904577
0.02059093692590345,0.019108767102346554,0.07541538957896442
0.017636418450407018,0.029743746186699248,0.07124722310377661
0.03016258927214708,0.020778438605736586,-0.000736973984818294
0.014561226860816321,-0.01281181701710746,-0.050108774474256684
0.005939983028619997,0.010069713400464845,-0.041740152851264006
-0.04440111002775081,-0.03294117647058826,-0.04618954933373271
-0.012069227265826652,-0.015208837772397026,-0.026260661379619864
-0.011100277506937808,0.025910364145658137,-0.035267432501646254
-0.02969930380684357,0.0028322106552357974,-0.027321998663597944
-0.028836934877203308,-0.00753693096171239,-0.011559825851974119
0.03297961676463847,0.02803525300106365,0.0004436229205175769
0.05736196319018397,0.06792657423902085,0.01673917852665719
0.08453025665175426,0.06595695440870178,0.029043789097408443
0.07875528236650019,0.053026325658141395,0.07232872527304665
0.05999241562381492,0.06087748595718826,0.06362252663622515
0.08556598732921157,0.0666766669166728,0.0870595429182908
0.08042223572296478,0.05369574877795882,0.08503660768761444
0.06089719902446241,0.05870639427686413,0.08070466009184671
0.04953582825645498,0.10474081990991677,0.09058708267390166
0.038789984078737766,0.10076687116564406,0.1118512780790085
0.029629629629629603,0.13460481908798372,0.09722960151802658
0.04343159702346896,0.12047637341529009,0.1034352300242132
0.033609900154689926,0.11490329920364055,0.14379084967320252
0.04498488788922455,0.1347988703152431,0.13801285976729946
0.041379310344827565,0.1352521263669502,0.1266958094663853
0.027157763803468855,0.09851452220826239,0.1293116547637136
0.0036923505643026416,0.04489411082100376,0.11587018821160233
0.019438295517432223,0.06650745404544794,0.13685103756846417
-0.0006171569635877625,0.03803418803418806,0.09307732693317329
-0.015578231292516953,0.035417859187178144,0.0984514953696675
-0.030739221093697408,0.013218956546196002,0.0807770194254855
-0.026757642651682387,0.022633021719266174,0.0775440675455488
0.02307588805166851,0.059352142110762666,0.12154288664355771
0.06219199000485881,0.05749429894271296,0.16825711886403535
0.04621021917622312,0.07412567925316996,0.18236196319018405
0.05132427610813771,0.05990592141671276,0.20257436621929206
0.07953838711906565,0.07124734279640668,0.20030733768728384
0.10048577376821664,0.07877551020408172,0.2027303754266213
0.09175888377208051,0.06840653797000079,0.21242653232577677
0.043992898007496534,0.06201083684527381,0.2056500607533413
0.034045611971508905,0.06458557588805183,0.1694627152464711
0.01439875470229601,0.08558339695981129,0.13431969828836676
0.021994517686986063,0.0625636153898351,0.13323201621073957
-0.004672897196261617,0.06689995883079457,0.1074786324786325
-0.03714213646109228,0.05514477230322707,0.09251574127074991
-0.02656761521027448,0.07300485773768224,0.08718886232597388
-0.04358780549256732,0.043645611382225544,0.06726646517185628
-0.024266936299292236,0.015321891234300077,0.07558342041100657
0.0014066496163682792,0.023459452394955258,0.08230253610669612
0.0033207739957852368,0.019003761836814157,0.09453810784450344
0.00514502540356282,0.020036548753426402,0.08114277808522406
0.04433820158491067,0.020739982076558756,0.09346499348556535
0.015974647522959507,-0.009395888510531018,0.06863945578231295
0.03431243414120132,-0.011269201712414958,0.056366449182753915
0.02610103626943006,-0.002078609221466264,0.05980333132651012
0.024964883156684946,0.01447168857431744,0.0799919268030141
0.027496658392209234,0.032161125319693104,0.12049698063441393
0.034743105764924224,0.032760712689188294,0.09737395670760667
0.026276182114636885,0.05247925911634186,0.1228900782214903
0.04080463428607802,0.07079703975374944,0.12984589869393953
0.06431072906717601,0.08103738196869746,0.15995836224843868
0.06034210692419366,0.1063619599578504,0.15464980411024812
0.03681554849560827,0.0779792746113989,0.09449595580982446
0.027070556897726597,0.05861320393308649,0.0834476899954258
0.037410338857284266,0.06785055056966453,0.08814372811000132
0.049740299419492734,0.09917461129950733,0.12119827698733843
0.04422018348623847,0.07067603160667241,0.09288183331199584
0.010290158540233317,0.07498885988923548,0.06488838441165337
0.0051788796952199805,0.0751989812161732,0.06308234701586508
0.03394616678683012,0.08622104399419299,0.08396321491559595
0.03365500603136299,0.06758861272036376,0.08303842264914045
0.02574953805805563,0.06603481385120483,0.10031969309462914
-0.00617032423307528,0.05571357902547608,0.09029950827000438
-0.0084929420722778,0.03440268866483346,0.08868737539391595
0.019423224965950146,0.05290519877675844,0.12744776999148608
0.020727229657704606,0.031169608136404472,0.11473289354546636
-0.0016851647393805104,0.022679921423894293,0.13145416227608014
0.01873030692029413,0.048966594568613346,0.1307642487046632
0.0043000755418676805,0.04240048250904705,0.10349891457029758
0.004275757043284825,0.02199439709125587,0.09133727961300996
0.013232514177693815,-0.001571686361254915,0.09744705355429022
0.015742085390647736,0.024190241902419165,0.09657594381036
0.03846600139243441,0.05992775507787058,0.13941052899611692
0.05389988358556455,0.0722492005211417,0.15288124801018776
0.030815052408499886,0.04578999360799579,0.1359590986555576
0.054735867615575876,0.06365970358268175,0.13555098735438853
0.05791438236323328,0.05404148991806603,0.12364492349625211
0.07153684701492526,0.07649505066479238,0.13647044274053916
0.0541004231956993,0.08884688090737235,0.12630614115490368
0.03441533046538911,0.07551553877432471,0.1324159021406728
-0.014470341323318262,0.03527500580181007,0.06754412204606636
0.008112463188309207,0.056053550640279365,0.08000476218822547
0.006308629107466157,0.05069018844149146,0.10213890891612594
0.005678372567396225,0.05548805184285121,0.10024125452352217
0.007018880243756573,0.07943543683657998,0.10317696846873697
-0.021647135416666564,0.05136427238805971,0.049711857500436704
-0.03645692681609506,0.020244767242365274,0.044924734961635425
0.003026227303295181,-5.586904296340201e-05,0.05986853792858403
0.01118888827647027,0.01325527449464269,0.08646215800071061
-0.020224596598342828,-0.001333555592598817,0.044395374513335965
-0.03168512224536784,-0.03099456909320317,0.030692029408332308
-0.07294143073265615,-0.05408236396714248,-0.0029635655761519604
-0.051960295014695304,-0.06980793296697309,0.0013471563287062508
-0.038957399103139105,-0.06982421875000003,0.012818998109640758
-0.06637613141133085,-0.09748852281933573,-0.029334882370026204
-0.07631091246048184,-0.050325039228872395,-0.016825249477837118
-0.0559728481611306,-0.06481838725679336,-0.012398137369033899
-0.02977807971014488,-0.06574356737897952,-0.018385932756744418
-0.017834246415666173,-0.07619778533055574,-0.024937800150436857
-0.017957416939635127,-0.09287875513291563,-0.020821182783156547
-0.026421697287839028,-0.07436366661121291,-0.026819029850746398
0.013225613405146667,-0.050952914798206295,-0.031739677456250774
0.004071757346866504,-0.049335121242596855,-0.04938823397955195
-0.0028290210408439312,-0.07778262291507691,-0.06555837843808685
-0.01272027074337733,-0.05858788182273411,-0.0598433072178697
-0.012402088772845973,-0.05780117753623177,-0.08700422403861971
-0.017213651795818612,-0.03834945797878548,-0.09035779260157664
-0.011502516175413298,-0.034861956013102526,-0.1022362478916154
-0.022621227334475295,-0.03482064741907261,-0.10221354166666669
-0.01774904496032918,0.00017953321364453105,-0.09732649203348641
-0.022519061410248845,-0.024076478224949915,-0.07318986774265861
-0.05413711583924348,-0.05675723463193255,-0.11789670947472862
-0.04981073123835859,-0.07725522231298873,-0.13791975577845622
-0.03448484848484847,-0.054652266793259005,-0.12668567043087373
-0.05296969696969703,-0.06927154684614924,-0.1557164469418631
-0.04302634759487537,-0.05128205128205113,-0.12183219652858647
-0.04852510022138446,-0.06077609119366837,-0.10863228699551566
-0.0341032773007618,-0.061181310608286785,-0.10749804447424283
-0.0024368907773055885,-0.05638631124770963,-0.12978305897743378
0.02440875173896556,-0.04255319148936164,-0.09864797195793686
0.03778796058000132,-0.006609385327164539,-0.06402853260869551
0.0784589786253681,0.021333333333333395,-0.017834246415666173
0.05847436221267991,0.015878787878787905,-0.019536733738886307
0.058105898629103134,0.016799613246313762,-0.018606007582385523
0.05183423062476525,0.005325195955244509,0.005505685218432172
0.05956780457250229,0.02285645180795744,-0.0017703292812463788
0.03302469135802465,0.045676080979755077,-0.013673601697412585
0.0151817576967277,0.06133805488807397,-0.020655852491539225
-0.020769048184191785,0.035842068922227154,-0.020769048184191785
-0.0182555780933063,0.05311660053756567,-0.019834415391029748
-0.025199096636158214,0.03574134882546095,-0.017373592139947144
-0.006963456731341602,0.04923908942271402,-0.014529561160002409
-0.014069519981082971,0.044071616376611944,-0.019806053482221597
-0.002091425156856853,0.04603820858127149,-0.012944027424788685
-0.006136796949475698,0.02969135802469137,-0.014125295508274151
-0.009453399587928749,-0.011310711909514331,-0.01784534038334434
0.024550315994166214,0.00047472110135286067,0.021818181818181785
0.038653822704548244,0.01634649803126124,0.03248484848484857
0.01947857356907402,0.01093545703078571,0.027918781725888353
0.013071111644082065,0.005594572074752992,0.0109495602225813
0.013353293413173591,0.00041380941120828314,0.023279719434030684
0.02943468616989387,0.0261129369584703,0.0729817545613597
0.03493209347852673,0.007924213536701526,0.06974832426963451
-0.018208778173190946,0.0030905344806689545,0.03904337455275876
-0.04848555999060823,-0.014948954788527029,0.03737360808908232
-0.016931216931216905,0.0195098158761126,0.055948471836322206
-0.025508996212121226,-0.013185495954450037,0.035404351653879985
-0.01831826508302307,-0.0038973498021345828,0.04000250406911222
-0.03773584905660372,-0.010538922155688569,0.03501409332915755
-0.043920316841047344,-0.03039386127929976,-0.0016049382716048822
0.018425663021808803,0.03132264774256702,0.019657654388193307
0.03325107958050595,-0.006583629893238347,-0.006112034179919304
0.036060279870828854,0.016964076074195738,0.03358787734160599
0.07197084725174609,0.03762492651381544,0.048971829311779444
0.04857641605971223,0.03101325757575746,0.03678133555529091
0.057431614621156986,0.03250014772794422,0.032927406006147984
0.08266353406702116,0.019741439552760393,0.046369883477741375
0.04087080317949927,0.03724064550452215,0.045459961868446114
0.05654068899635798,0.06905092732435213,0.07235486607683915
0.03849927849927843,0.10993214065391729,0.09333981526494886
0.0133711048158641,0.06960889845712244,0.09047677112547252
0.03346727898966712,0.09341026419678101,0.07899310758166021
0.018714588221828022,0.07145006922289776,0.06727425350761482
0.030209582548112568,0.09174534011135316,0.08023952095808387
0.04861229839858666,0.13762829232100895,0.10305137581679753
0.05357142857142851,0.10594376557124205,0.14058485256331818
0.041963094708759516,0.11929070392262218,0.11192170818505341
0.05904059040590391,0.09333333333333325,0.11188072317445394
0.051435871799144536,0.07246458923512743,0.11281599059376836
0.07617977528089889,0.09965556831228481,0.13375946969696967
0.05593126385809314,0.09019630286728106,0.12562784376292632
0.038369565217391315,0.09108560333504646,0.1126252038201724
0.018665522420081473,0.0823502593035846,0.12265768162203701
0.008428015149090588,0.06832052441229658,0.14208904730260383
-0.02016682504487379,0.03156958648288132,0.14497223935842074
-0.021976860901262597,0.03505535055350543,0.10710441334768567
-0.04515556483608272,0.015997333777703692,0.1109019131491041
-0.023728279699721824,0.0447752808988764,0.11942454704147357
-0.020046058829687075,0.037860310421285945,0.13307915758896138
-0.004001684919966254,0.02804347826086955,0.16953134660566332
-0.008040201005025178,0.005846384895945095,0.1124095384980424
0.025484913793103546,0.01525577425721456,0.13636635022986449
0.03516447901474635,0.011719987329743421,0.10614718614718607
0.03657536493357388,0.0016376987690844857,0.0742209631728045
0.030112383717803917,5.220296512837181e-05,0.09971297359357065
0.026117609357474845,0.008556879626227074,0.09952498139987419
0.022732078663565296,0.012561499005548026,0.10479127405630742
0.05135178371460564,0.03812131423757376,0.12361087365361599
0.030683549624336545,0.03766199418143335,0.10855560578661833
0.03297850135671061,0.06659482758620697,0.10026678523788363
0.04546413502109707,0.07070707070707073,0.10824108241082402
0.050790833637834834,0.10054124979498122,0.11814697550408271
0.038621694774099456,0.07296875840189274,0.12101123595505614
0.012405665253799264,0.04609304064519588,0.08569844789356988
0.0013187259078920213,0.043666737153732246,0.07293478260869558
0.00881888158230116,0.05529781901562419,0.061467496245440935
-0.008789654475651693,0.030946251247832637,0.04667413452819118
-0.004843103622237958,0.02932581924441664,0.04138950480413897
-0.006855439642325006,0.05443037974683541,0.05615721908183209
0.013430891049413685,0.05559325572897639,0.05564836082689495
0.031451036454610413,0.05153029356652095,0.06052811171190089
0.03788876506939529,0.059133671043109674,0.07243797759866012
0.04628600303183424,0.05021302495435182,0.09024852569502957
0.04311487106309249,0.043380741193862565,0.08267654059772545
0.06539592416100581,0.06162861184077585,0.13232758620689658
0.03521408563425381,0.044092422560791086,0.11791713930751371
-0.02047275244782903,-0.0159960258320914,0.08293696353397854
-0.02920502920502923,-0.01713942066753527,0.054578695488519686
-0.027623230844314284,0.01725722454814661,0.06414570314586349
-0.05341446923597026,-0.007192786951676565,0.03615986466483402
-0.0510064490912644,-0.018494188984335504,0.03578094171599215
-0.07632280167491431,-0.010702272958923629,0.019912783060999275
-0.04087746424429845,0.00628611984183316,0.035796284700480144
0.0463449111470112,0.036714685874349756,0.09314345991561179
0.06863145013257194,0.03639600435169624,0.09401263245810941
0.021180485846215614,0.007128007128007117,0.05902560899437853
0.04367346938775511,-0.0016593460224499923,0.05737620179882143
0.06713344316309716,0.001062493963102477,0.051328869953337415
0.0835565629507521,0.02765292163376977,0.07223326706428107
0.04685138539042827,-0.011229539398553413,0.04970701151747829
-0.008588246646723927,-0.007151140316969551,0.0366259711431742
-0.021853230270063997,0.03493537964458798,0.01838052657724783
0.005603066941904975,0.04323883336732608,0.025358324145534742
-0.0038130621822448237,0.022786589038345673,0.04043704687021335
0.005017367811655693,0.06285714285714282,0.05521223786850373
-0.014167538271370114,0.06754530477759475,0.04780192016169787
0.0006737247353223598,0.07119307644755818,0.05972887575170726
0.019369281681915606,0.05521410579345092,0.061847308121261366
0.02624390243902437,0.01505355592010038,0.05232092837134858
0.04271749755620728,0.01794064319114415,0.0549896152704975
0.038374717832957074,0.040007863953602604,0.04742104742104734
0.011712749615975411,0.03030895580758696,0.028599316739873037
0.028742283950617183,0.02913932844461594,0.030232782768279683
0.023083581802443066,0.011410097936673984,0.039378542114520236
0.030268308985009085,0.03849855630413859,0.02683669585078043
0.03926228728966628,0.0640451625462332,0.05643602628527241
0.026624167994750196,0.06839024390243907,0.10571486268174474
0.027315689981096413,0.062463343108504404,0.10840301856006522
0.05048396280129064,0.08646579644714891,0.111222646055009
0.046596662291393205,0.07171658986175114,0.13908163265306117
0.07191877409043895,0.09972993827160483,0.17401153212520584
0.056811862835959175,0.09675868038857365,0.1748403049660004
0.028082693011342915,0.07314045641172535,0.13239294710327457
0.036800292210757014,0.07938016921760632,0.09562867895397097
0.06541540160088324,0.08559107527889749,0.1050672774119667
0.06576332429990968,0.1151228733459358,0.15973655755431043
0.05177819582549495,0.11415828430442211,0.14792725850606175
-0.00877039115944571,0.05962872679542471,0.0905055962948668
0.017451547838288124,0.0907210679702923,0.10316630217742696
0.026959693922946892,0.06969416126042628,0.11087584215591911
0.020257178087017765,0.059641419685327574,0.1275063266497957
0.00915371329879104,0.06711715825038804,0.14009756097560974
-0.01212069842346166,0.07231576041954181,0.13929618768328447
-0.010050251256281345,0.04995483288166216,0.1407400137403082
0.03300300831711205,0.04586580668279141,0.12087173579109067
-0.002499569039820652,0.014997368882652237,0.11622299382716046
0.004851845434066906,0.017100762957116572,0.11551409060305863
0.006215469613259659,0.03710294510187741,0.11295712785257327
-0.016258771179188822,0.012506605601550003,0.09287955128814522
-0.02488202488202481,-0.01856649395509492,0.06543545514202685
-0.0046459605953713,-0.019410069503305698,0.09347826086956522
-0.028351177730192738,-0.033813133463929806,0.07648510153729363
0.011837898556986004,0.03609980534418686,0.0978811175698481
-0.0037075357820314436,-0.0040510256852266755,0.08630252890852677
-0.004461221688400789,0.005371686016288377,0.07544022242817423
0.010351426583159464,0.0026761049723757102,0.062477131357482736
0.02551693796744383,-0.0026527468766045035,0.06428636654186824
0.002247385253695264,-0.005148005148005099,0.06679547336461501
0.024330042313117112,-0.00025810892196507905,0.04968383017163505
-0.019470538001707952,-0.01653104925053539,0.028576547523067257
-0.018693206404154016,-0.020219476367406924,-0.005525346430450759
-0.015511892450879104,-0.015002586652871262,0.001841620626150958
-0.021696082651743522,-0.02513726835964316,0.011033010054275245
-0.061003861003861,-0.04801670146137784,-0.03611062180729266
-0.06821905993962912,-0.04936207655081389,-0.06701208981001719
-0.037779690189328745,-0.033537903016682476,-0.05229699949143924
-0.05391046855948439,-0.04240126939351201,-0.07478068307639896
-0.05952905899991181,-0.08932536293766007,-0.05645018580782159
-0.07160364145658257,-0.08212894850713973,-0.08584726771246332
-0.051482883041450274,-0.07118235091347815,-0.06619303413619823
-0.010416666666666671,-0.06758501937150244,-0.06508977900552491
-0.012495372084413259,-0.0845988845988846,-0.08702721204860518
-0.048832841427421586,-0.08279430789133255,-0.08751608751608754
-0.04326613274417738,-0.10559380378657483,-0.10582465800567836
-0.0051575393848461845,-0.07603205016547632,-0.09130620985010704
-0.00594003394305106,-0.07020019402063668,-0.08900025922405597
-0.006958619409909074,-0.06311274509803916,-0.07716847732367652
-0.009418282548476417,-0.055883129455249446,-0.07961564859299933
0.004686474833630144,-0.02055921052631579,-0.06758872651356991
-0.0007522331922895938,-0.01638282117734182,-0.06493620765508147
0.03858366208024623,-0.03461228870405156,-0.06698936813899213
0.03119992459232729,0.007088281321918534,-0.035613540197461144
0.030162192924215046,0.01847336834208551,-0.07250213492741243
0.01270671774268896,0.021968696963982636,-0.061964517524880976
0.024235645041014116,0.019484134347745354,-0.053085143054119356
0.0048511988058587184,-0.0054478301015697455,-0.07266465777012494
0.013832690317116769,0.009841597150623275,-0.07558987558987561
-0.030850472484713714,-0.016361071932298965,-0.0978007761966365
-0.038574040219378415,0.012027326084864813,-0.09483648881239239
-0.06629223828376764,-0.044113488547459764,-0.11679149973872145
-0.0653196789371713,-0.03907806127288252,-0.10653496781021253
-0.07162358937022198,-0.04690273755021953,-0.10705532212885145
-0.04317147897131178,-0.039336316181953754,-0.09302120918771446
-0.05958789678856508,-0.05476257113536715,-0.07419590643274858
-0.02581015199311732,-0.0410275712807001,-0.05673824509440956
0.00038030043734542726,-0.025199184732258652,-0.05893927197925054
0.03727443052953359,-0.03848263254113352,-0.031667126944674565
0.036225446648899436,-0.033422336801399465,-0.015566391597899442
0.023134986766003326,-0.037088292277885376,-0.015934376767867225
-0.012808072967203642,-0.07408081543502003,-0.05604008164780113
-0.00473746545598095,-0.0637823786092284,-0.06888273314866107
0.002256893337258404,-0.051976981622424305,-0.04264692098603428
-0.04618893746436038,-0.04062709110027722,-0.056323460272684485
-0.03146686947428465,-0.0313747860810041,-0.019724814779178403
-0.02962469041722232,0.0045360418104724185,-0.03977754736544442
-0.051259940595956774,-0.022603889053400515,-0.06079863416484881
-0.04806369176331827,-0.05058327614939722,-0.0951135195739513
-0.03748512495041651,-0.05821851348728896,-0.09526472781506337
-0.05453299392990021,-0.046881168574812476,-0.09907640638119232
-0.05251096054204859,-0.06692179373957408,-0.10520372635739149
-0.08117393011385941,-0.11034023949819426,-0.13275894015193626
-0.07175812309806619,-0.10105523338720407,-0.13564899451553933
-0.07129872752979198,-0.12402362354734245,-0.15330080103121266
-0.07248322147651003,-0.13931206285331038,-0.17123350862625705
-0.1370286420770657,-0.17672498525653618,-0.2377138696760101
-0.13182147664906277,-0.16858389527965092,-0.22161359205273412
-0.0727731622673257,-0.1367730565889955,-0.18164098756265076
-0.02499732934515547,-0.09057393383818257,-0.12752126947710546
-0.03532148900169208,-0.10463290145268941,-0.1327248526335806
0.008699434536755235,-0.08942770197310297,-0.08529730795779501
0.06901925859957701,-0.0301959200161583,-0.05211726384364822
0.09921203438395401,-0.049354672173464134,-0.09744142731104805
0.11402671755725192,-0.03770863383474136,-0.09373180671453518
0.04457298400816596,-0.04628766697732214,-0.090998815633636
-0.03111646762353445,-0.07003891050583654,-0.13227357472279452
0.003069502302126739,-0.02254032688815297,-0.13039346131914084
0.003988788270806278,-0.015122673434856248,-0.11464968152866245
-0.03967510153077166,0.002827316224445467,-0.1215469613259669
0.032366677527967895,0.058109762885450285,-0.08929769090734892
-0.0008565310492506692,0.1141356255969435,-0.08275997641045806
-0.019761129207383207,0.07681297709923661,-0.10472034906783025
0.0867352708356891,0.08993988885108305,-0.05913452124534958
0.08163934426229506,0.08436507066944235,-0.013850139497807896
0.068935896059272,0.0913176934882701,-0.022870043188064373
0.0680980264584689,0.06188012074169895,-0.0330813782271523
0.03892688058916363,0.028324481932729344,-0.002726721874368774
0.045435062151736066,0.05962854349951135,0.007330924109447682
0.06169694284448375,0.02623126338329752,-0.012466515557387266
0.02143600416233093,0.0657980456026059,0.016464740602671675
-0.026472668485399663,0.08956236571299318,0.01325060469029331
-0.018884982420893977,0.06743169398907106,0.04337143467578253
-0.0017258883248731137,0.05583592827230756,0.039868866328257146
0.006987341772151876,0.07829104315766644,0.08133971291866034
0.04284542845428447,0.0703840084166228,0.13258376934209057
0.03870631194574865,0.06686669524217756,0.18863419293218717
-0.014466177669111673,0.07155516171909608,0.15386450381679379
-0.023663725998962132,-0.021123829344432896,0.06691618464330261
-0.11211221460018432,-0.12377488127715469,-0.04985208721376134
-0.11278348418590464,-0.1236564540431944,-0.04363078272308708
-0.0919147224456959,-0.08324873096446703,-0.026520051746442515
-0.09770001965795162,-0.07037974683544307,-0.0440487347703843
-0.06588991562876659,-0.046740467404674066,0.010101010101010176
-0.061918544552408465,-0.05320813771517991,-0.02837259100642404
-0.06250664398851914,-0.10156886715566421,-0.042453854505971736
0.0280212177121772,-0.07472755578619604,0.008142033246635743
-0.0051581843191195395,-0.11139551551141594,-0.05147540983606551
-0.03809523809523807,-0.11664802196684633,-0.06732524428218616
-0.05915032679738554,-0.13143604183427185,-0.06343526350032525
-0.08236559139784942,-0.1611952034597994,-0.10215675960021035
-0.058181818181818196,-0.1415226998794697,-0.0841191598799828
0.03345050459235744,-0.05788712011577418,0.009525919361984929
0.03701626472237798,-0.017221218241734778,-0.03798126951092603
0.09482659292545212,0.095710332103321,-0.0399110841669193
0.09440478931614095,0.08963778083447968,-0.04510296333500748
0.11624406622669899,0.06766334440753045,-0.02121827411167516
0.10206233887977494,0.024509803921568627,-0.04759493670886079
0.09769509769509763,0.008817204301075195,-0.03833538335383363
0.03500109721307876,0.03944903581267216,-0.015858111632759478
0.0027041644131963224,0.05113958498696003,-0.055623471882640524
-0.031046095558829753,0.03275378575434647,-0.04442138038401662
-0.029665474437197636,0.06279525290932121,-0.05559537217159831
-0.10092314075303381,-0.002072300253281057,-0.11847859249466075
-0.10462519936204151,-0.02500868357068439,-0.1531576830249397
-0.10807930078874427,-0.019451605343332512,-0.17751130332219373
-0.07897805576168772,0.01649701649701646,-0.12736038569706717
-0.05652642934196342,-0.04037744129910036,-0.0959272276204259
-0.0821114369501465,-0.08588426176311517,-0.10162644838949707
-0.07784041630529047,-0.10482003788676061,-0.019142066420664166
0.012228887863405492,-0.07700399747527885,0.005731315910132967
0.027550172188576267,-0.10247899595477643,-0.041749723145071936
0.07923040152963665,-0.03976608187134498,-0.016230936819172058
0.02819981583793742,-0.047857599658921286,-0.03946236559139787
0.03521609878801753,-0.04017809816601285,-0.0023140495867767907
0.06922257720979759,-0.02524271844660198,0.02460596439505615
0.06736421349635556,-0.0139024655153686,0.01839596186203029
0.052313653977661315,0.0009757155247181636,0.0638322387371816
0.0747717554605339,0.07291185971389008,0.07068846419525675
-0.024471265640571453,0.04619403871274196,0.020030103045038668
-0.004701667972685567,0.062499999999999875,0.041832669322709085
-0.01667771150872548,0.0247467771639043,0.04165204165204168
0.023904382470119483,0.057855019437457154,0.015141540487162557
0.06079964753827509,0.13962844633771146,0.04175229853975121
0.030975847503519977,0.11909240536092165,0.0017890970322037645
0.03430107526881718,0.09630727148392983,0.011887229118451456
0.08728717366628845,0.10701490812435,-0.0064308681672024725
0.07918119446631432,0.06245155575240838,0.020202020202020263
0.06997641244524322,0.06638307399529841,0.015348539756981583
0.007349762213575517,0.02937927987629773,-0.011979221880631776
-0.015678538054200032,0.049136786188578994,0.022653721682847835
0.018174177959869777,0.06751844916841056,0.052677310741826966
0.003118827320927302,0.04505577818693812,0.04607545533391154
-0.005010961478233677,0.024838709677419378,0.0995616059067835
-0.022407503908285623,0.06469920544835418,0.11388196176226106
-0.04387990762124718,0.024406703407940634,0.0884321223709368
-0.013626609442060043,0.03257328990228019,0.05812615101289148
-0.033649789029535845,-0.009835711197578865,0.04745026297736115
-0.04013619479983492,-0.03405669193230195,0.10081647142350013
-0.06591356617266038,-0.053156844206324216,0.0596049847166705
-0.05865071870737597,-0.06726270922133278,0.022566674264873538
-0.050533049040511674,-0.07025785572606748,0.02923841442274357
-0.0077953447518664225,-0.05815528921313182,0.0006643782526852206
-0.0156640922440989,-0.05007348309888736,0.012985559162655286
-0.022049994542080516,-0.03873390557939913,-0.010492599955820662
-0.047941524239492724,-0.06571729957805912,-0.019809650287738005
-0.026739154554532307,-0.09492364836978955,-0.03381429672871469
-0.0393446277307178,-0.10674681314125814,-0.06650059568937508
-0.028183247249045643,-0.09191060749134408,-0.06935483870967744
-0.05156578510567678,-0.08624733475479748,-0.02712826333711692
-0.056359818764504306,-0.06247255160298636,-0.03959059723315708
-0.018863712467909338,-0.043837702599804206,-0.012692350892957378
-0.019984193293440172,-0.05250518502346908,-0.06182447038478166
0.03351573187414498,-0.02547565301515645,-0.058664728480947
0.038751595312681325,-0.006657050926439524,-0.059460027313793434
0.047718082033506755,0.010699955416852518,-0.057282461794365226
0.038385252595963204,-0.0006737031214911551,-0.0708842259108467
0.04040285747745641,-0.01693039725572647,-0.0741010943199583
0.023435722411831488,-0.005857000773566153,-0.05563720344320818
0.05253456221198159,0.019756669271123965,-0.019742489270386302
-0.0011030222810500146,0.0224681043242634,-0.04472573839662442
0.029152239472802405,0.050387596899224826,-0.04931902600082543
0.011138067931186489,0.06381250725142128,-0.049746087677479504
0.02494382022471909,0.053957250144425206,-0.04291260098625541
0.04356145880234118,0.08167075020417688,-0.011620469083155687
0.054579813250333606,0.11102002576414105,0.04161176987263951
0.03185201401050784,0.07246871444823652,0.025454149896660384
0.038427561837455874,0.08341013824884803,0.026525488483790053
0.038745387453874465,0.05570262519302887,0.028807911426421504
0.053440942305595006,0.07885624930191,0.07167424830799965
0.038039903529927636,0.04422143802381992,0.05539456085599642
0.04044871103440837,0.08382022471910106,0.08309005165057255
0.032570886476230514,0.10265646105357935,0.08398804913134877
0.03956720059403845,0.08937305469097384,0.08299259586694668
0.03392173543173115,0.06425131348511388,0.08527737470699855
0.021209904921115883,0.0792844522968197,0.10353392796658013
0.0,0.04829607119600611,0.10111719106247155
0.03178793959235405,0.06554695168502568,0.13354217426615622
0.018764254613311243,0.07728568296426219,0.13541305603697285
-0.012658227848101214,0.043253154999460745,0.12845642282114111
-0.006530612244897965,0.026246442500263464,0.1401803489870008
0.012650416538105417,0.044446801739683864,0.12013651877133091
0.020462451401677923,0.060612505316886306,0.14907834101382486
0.024433171135728328,0.03385226204158405,0.09144054709905147
0.012282497441146395,0.023915519204886656,0.10465765665140181
0.011397171059326392,0.04963565318407438,0.09605205116894566
-0.02253928866832085,-0.019904623678208454,0.062247191011236026
-0.023418241577649972,-0.029399755002041606,0.07023863124718589
-0.05037578712167372,-0.04591836734693878,0.03935082258781688
-0.06256266292360131,-0.038362645274092395,0.023423817863397554
-0.07417887822132394,-0.06271741354614278,0.011594522968197848
-0.05551061678463103,-0.03292266280153232,0.013783373127848882
-0.07837810644934104,-0.06243602865916078,-0.000981568328061985
-0.040300401946266155,-0.07672738373867907,-0.005371629028721715
-0.04848548590660496,-0.06461952026468155,-0.02416136339121988
-0.018181818181818212,-0.05710764174198852,-0.0323600716770318
-0.034652406417112244,-0.0832825512898638,-0.04253739259573556
-0.012553214714550875,-0.09304190896330461,-0.038068906848149855
-0.020554544481318937,-0.07539161192521483,-0.04409152648626057
-0.014628820960698573,-0.08736097067745197,-0.06553473444455946
-0.017414306183180846,-0.10302847368950593,-0.0585067060935684
-0.016248480159168775,-0.058599534588534015,-0.07733775658303954
-0.02886710239651407,-0.06236853176272605,-0.08993466721110646
-0.017394194549080515,-0.0514438502673797,-0.09500000000000003
-0.01879283661286744,-0.05069518716577535,-0.08711303095752339
-0.018799868838124373,-0.02008514354328134,-0.08154286883568651
-0.013848881010414357,-0.04710416443635576,-0.07847603271560201
-0.019854178351093776,-0.04606986899563318,-0.10562947799385883
0.007640449438202324,-0.011572798412873328,-0.0874122316067975
-0.00044868199663495516,-0.015032607494196965,-0.07868072787427625
0.004510091329349483,-0.029520697167755926,-0.0849424815119145
0.018589454709328428,0.0016618657212496284,-0.081759089985781
0.009802829453046783,0.0021003758567323893,-0.09113695608582303
0.005842040220199933,-0.021423106350420745,-0.09519959575543205
0.0210574502174411,-0.011522269000664815,-0.097876643073812
0.004460303300624347,0.010431856421760994,-0.09367139551262704
-0.0010099876557064685,0.0002247191011235508,-0.05838798392214946
-0.003142889213155249,-0.003813796971396561,-0.06594446781657548
-0.02366994801460016,-0.00473559589581691,-0.05593582887700539
-0.02835079977937129,-0.007661108607480924,-0.057967914438502695
-0.008265385904166145,-0.010916787345438229,-0.030782665647854965
-0.00986325935888809,-0.007527244129873067,-0.05427684402098269
-0.02697602131438713,0.003089951934081143,-0.04312227074235796
-0.01078409346214327,-0.01806422836752904,-0.02942797310702085
-0.028825582704650403,-0.032095163281337664,-0.04664529678346412
-0.008156791661946288,-0.01728589067235387,-0.0462962962962963
-0.026226158038147165,-0.051321756442871375,-0.04974518058940847
-0.03513909224011718,-0.05493656922228355,-0.05295158080919735
-0.03678967625084899,-0.04959231542499718,-0.0699530003279046
-0.010610382201939609,-0.028020623178659495,-0.03922003102149353
-0.040540540540540626,-0.06205595026642988,-0.052271452607964224
-0.011014492753623222,-0.04178836216580543,-0.0415730337078652
-0.034380354083380825,-0.048080171151897264,-0.05171060011217049
-0.018188177684505098,-0.04599524187153056,-0.050513022888713545
-0.005135986926578706,-0.03235694822888277,-0.03977016674177559
-0.021624162651310418,-0.06239441378533625,-0.07263005458393669
-0.04981549815498147,-0.06724020828616706,-0.07426131895292663
-0.047224523612261746,-0.08157444381061044,-0.07873655298695349
-0.08640093786635393,-0.11503520327049734,-0.13102140945584298
-0.08528507215519289,-0.10342028985507248,-0.13219616204690832
-0.09642560266001651,-0.13089663049685887,-0.14591985632506455
-0.10454065469904975,-0.1101783840503673,-0.15584559230173659
-0.09717717717717722,-0.12268005135986933,-0.1708769994484281
-0.11177184466019427,-0.13985192149488782,-0.1825086563163186
-0.04534161490683237,-0.1138145756457565,-0.13864604348800721
-0.002438085461311586,-0.07989111137412712,-0.13698934280639435
0.015647226173542066,-0.07924970691676425,-0.117726353628398
0.014456564594558999,-0.08694109297374034,-0.13084112149532715
0.001572327044025217,-0.09226932668329173,-0.13402061855670103
0.021021820117083534,-0.09961281239000362,-0.12874659400544963
0.03962289930318357,-0.08600600600600597,-0.14303412546457936
0.010800260247235037,-0.05728155339805824,-0.12067013810278465
-0.05119629534345241,-0.0837267080745341,-0.15847119224187106
-0.028902470078940794,-0.021301167714615817,-0.13388598682716338
0.001425055058945452,-0.0003879477563688237,-0.10376811594202902
0.04565672422815292,0.05046655276646081,-0.08703597944031971
0.03831118060985161,0.04402515723270459,-0.07100384749912544
0.05046655276646081,0.06346460883448657,-0.06700128399673158
0.029994850669412952,0.0931821287061075,-0.05970149253731341
0.09015726681127971,0.04632400780741708,-0.07276291512915131
0.01048905205192077,-0.008618471829174194,-0.08782104391052198
-0.0073738680465717105,-0.02304558186911131,-0.1004689331770222
-0.06343050168897794,-0.03018525715766289,-0.1145020108824226
-0.13077309236947793,-0.09392987964416527,-0.17753235957724722
-0.144751657700488,-0.10919989575188944,-0.19793499941335216
-0.11273590801149869,-0.06702589039295583,-0.14726726726726733
-0.057455540355677036,-0.024330587023686925,-0.08021844660194173
0.0031140521603738045,0.04812906724511926,-0.03962732919254656
0.020591685129675463,0.026747082732398144,0.004876170922622808
0.015495591771306393,-0.01655886157826651,-0.016940385361438024
0.12200404273751066,-0.027774302514700522,0.021290576948350508
0.1329724985371563,-0.027986947791164705,0.014806079664570359
0.08311029722496135,-0.0380332791192294,0.02301756253326243
0.024673439767779262,-0.029371328583927114,0.06107391720180351
-0.004915276160910561,-0.0432781992289515,0.0010409889394926808
-0.0031924403013663645,0.012845465161541576,0.004116285052739997
0.01486450933964759,0.005473739085103632,-0.017697988286223588
-0.016471496589885306,0.02097248196633726,-0.009845834952713964
-0.0025823111684958404,0.11536240254114921,0.010596546310832055
0.039667056834438774,0.16939730836746633,0.041699244201198894
0.025753283543651816,0.12212987744752786,0.046918123275068904
-0.008709216170544673,0.006201345823987318,-0.018280123583934108
-0.01972841404048176,-0.010218600439787947,0.03741865509761376
-0.025016202203499763,-0.039458562124888304,-0.013766880818146024
-0.04435431113437133,-0.03920021047092857,-0.05510996119016806
-0.051650485436893136,-0.057264187363273565,-0.08344801701488803
-0.08944208156117077,-0.06016785022595218,-0.08647088353413655
-0.12842078835048945,-0.09702171933931582,-0.13136494432628548
-0.0803829006031997,-0.09696111254184911,-0.12348456442944643
-0.04861474124411917,-0.053685168334849986,-0.09463997015296605
-0.02166976867854288,-0.05726364335126824,-0.04515375632541832
0.05503833515881703,-0.001166558651976713,0.004300794995438529
0.10087360087360088,0.05521392123511708,0.07734437616884861
0.13806841599120753,0.0723624595469256,0.19607276927519487
0.2065389601037014,0.047910933199899905,0.22542422469280277
0.24112362754883804,0.09264373587747941,0.22608818143400497
0.1991758241758242,0.14476789929189604,0.15186700092360456
0.16904470716129905,0.12428123366440154,0.11279265295563315
0.10667012717363092,0.13374102632278653,0.08900523560209422
0.0636081835089894,0.17442497261774362,0.12838726650881355
0.051907291163689,0.18946218946218937,0.12134860378329697
0.044526680195774195,0.20208819892842414,0.1297611362169141
-0.02562040441176475,0.22151807575975793,0.10300429184549359
-0.027835051546391668,0.2101810922572367,0.0928405871748649
-0.026153667325351623,0.15082417582417587,0.08904198622124
0.0060975609756097095,0.16591928251121066,0.09915449654112214
-0.004080205176031642,0.10861666234103302,0.10732339598185354
-0.04303419784255221,0.0339739615623062,0.09106371843516935
-0.05485714285714283,-0.0016900048285852314,0.07055016181229777
-0.00023582124749435231,0.012176196729139433,0.06067050287715798
0.007658772239896211,-0.017463235294117762,0.07356264122520713
0.0247075674385294,-0.016609392898052727,0.12575399947547847
0.0031468531468531007,0.00046495408578393633,0.124803972817564
0.035350579421748754,0.037171669793621034,0.17588407338473816
0.03693488427869047,0.008043833061319628,0.1838718510405256
0.04558645707376053,-0.0076887766812026815,0.18031668031668022
0.005661044934544047,-0.02548571428571433,0.1714521225443054
-0.0017539756782038293,0.006602994929843205,0.22958375342071144
0.008503203261502668,0.020148462354188684,0.23456438043633257
-0.03195073777158127,-0.0054905705418955356,0.14450549450549446
-0.07642736009044664,-0.047902097902097894,0.11006930289441492
-0.048803053081993744,-0.037223457801709076,0.06735011679211002
-0.01942870359662302,0.0167885837630412,0.051332920024798515
-0.026855869590711765,0.003385731559854911,0.0016900048285852314
-0.0025770176877122977,0.004245783700908119,0.01647367792765918
-0.04539154539154531,-0.03355940130963506,-0.05043658088235294
-0.008281325012001893,-0.03750728013977867,-0.05349369988545248
0.010772432366262645,-0.04066457534564889,-0.04021852842031859
0.035136778115501525,-0.03742227247032224,-0.001641651031894941
-0.0148602429531785,-0.03400023129409041,-0.0262298904173467
-0.011569052783803421,-0.05146293512200767,-0.05875602478769801
-0.020199647680563697,-0.021578515304327306,-0.04651428571428563
0.016938898971566745,-0.015462106126273953,-0.008961207404787232
-0.02142079148009193,-0.06606606606606605,-0.047248733356898845
-0.019135279157078824,-0.027964474315890525,-0.03330150393888764
-0.05461592670895003,-0.014689680499449171,-0.06188811188811192
-0.08787262061534781,-0.073677811550152,-0.10815872644270172
-0.05986344793952691,-0.09057671895270676,-0.07530879002278452
-0.06052978544887943,-0.0554350445890577,-0.05223700120918993
-0.06983938132064237,-0.08185554903112154,-0.07795730628611863
-0.07383131338115259,-0.09388989715668487,-0.12429840972871838
-0.05099394987035431,-0.06982935979668396,-0.10471753057658702
-0.039632252453720936,-0.06382463364418066,-0.10189380736609732
-0.00511878199238746,-0.10970166784120276,-0.14301865460712274
-0.049409933860718486,-0.12247096851430628,-0.152307158552099
-0.08867057922939511,-0.12911485003657633,-0.1739331560078639
-0.10143259145561533,-0.1579767469735108,-0.17614635862554234
-0.0678328214714915,-0.1694229625223081,-0.18226543282183438
-0.04124381993234454,-0.08867177838238934,-0.14887964887964888
-0.050194049159120256,-0.09346832942338552,-0.11881901104176659
-0.07005277044854885,-0.12423903590508138,-0.1371036846615253
-0.030150068212823927,-0.06693791836198969,-0.13568389057750757
-0.011479770404592011,-0.08429516275450655,-0.16723670244132569
0.007686832740213612,-0.09683592753253367,-0.14690286816100262
-0.0018621973929235846,-0.10872345868508569,-0.18167938931297709
-0.0483104898900801,-0.06355988783549213,-0.15148215366001222
-0.08308362843911753,-0.12412177985948486,-0.18528379523175606
-0.07135763938147258,-0.15316946959896513,-0.20721811796051837
-0.07835138556759048,-0.13562005277044856,-0.2304439746300212
-0.09828636170514088,-0.1313778990450204,-0.23775888902190828
-0.11117389461788393,-0.1191376172476551,-0.23287003169958542
-0.07907577497129742,-0.08654804270462631,-0.23085221143473575
-0.06944246399543691,-0.0651769087523277,-0.22355740630577028
-0.0646167557932263,-0.14547428416338715,-0.22124659906010388
-0.06843874121600974,-0.16943612094797064,-0.24706753920237065
-0.0805860805860805,-0.14541069655270242,-0.2515840477077897
0.0012564787183916805,-0.10324940216626816,-0.16327602047512793
0.04926891290527645,-0.06500495680498518,-0.14382051614576583
-0.04020570359981297,-0.12996185901963558,-0.21421280939015047
0.011798958014097395,-0.05238231917336403,-0.1554105909439755
0.049229791964427415,-0.05789248538428636,-0.11777273334223537
0.1254509675303378,0.019459298871063613,-0.10707780379911533
0.17895086321381132,0.0849373663305836,-0.08124191461837
0.08376470588235299,0.054487179487179606,-0.08852242744063317
0.017267494698576198,0.054813884089838144,-0.08376534788540246
0.13963305731449902,0.11554354736172912,-0.017359652806943987
0.036498561260033265,0.06654199781829509,-0.025765124555160175
0.014984107764492344,0.027581979773214787,-0.03939263715800029
-0.002914177473407965,0.08670795616960471,-0.07138010584882604
-0.07645733596170083,0.07559855690390303,-0.10664669027512937
-0.04776378636561003,0.09213147410358573,-0.06667612427294636
-0.02382370458606305,0.028392156862745134,-0.07778871852581236
-0.03547513890867638,0.0254468342926387,-0.04121229287636307
-0.00803623611922848,0.1022893326838772,-0.04096623816923302
0.05606919176856533,0.07254278358321962,0.01636050516647512
0.015051877831360323,0.051309217496594534,-0.009553686011692595
0.06281445342277771,0.01573655835640388,0.03550207961972669
0.09758321933424513,0.016755843424387466,0.10311640696608616
0.0375228798047589,-0.015487045882182766,0.03815628815628816
0.026883308714918657,0.035139964264443116,0.0918800062823935
0.008985122993077028,-0.024077503917936997,0.08868404322949774
-0.04687941259531197,-0.01373465809468144,0.05189340813464233
-0.06795277857759861,-0.03459588428273199,-0.007968127490039997
-0.06727872615119779,-0.04983194505333933,0.03255518500873427
-0.07215067165212566,0.021497179448086545,0.09872089209576916
0.018082916789179712,0.05259157926736576,0.14956839309428946
0.027186421173762954,0.08923123856009753,0.12015686274509799
0.10175182481751824,0.1147710487444608,0.14313844289609215
0.045333333333333364,0.03932832523199296,0.1456405260594252
0.11615693543404404,0.020333239197966847,0.09435105255187042
0.11150415256844048,0.04045493809386701,0.09383986680793104
0.12208955223880608,0.07846793860278316,0.09543931225411645
0.07985559566787005,0.035590638415732,0.05294283300478746
0.030808010082621524,0.08218171126139376,0.0654219134462295
-0.005697628196634327,0.07940161104718083,0.11733174508636107
0.08418367346938772,0.11678832116788321,0.08989884598945723
0.04663714364793786,0.12044444444444438,0.10505552308591463
0.05105853051058527,0.17330861909175163,0.1327169698777213
0.009577015163607327,0.16733312826822533,0.1091626479614204
-0.005883926183471486,0.1095522388059702,0.13340448239060831
0.009373726395870096,0.07292418772563172,0.12935096519227832
-0.0067963752665245875,0.04369135975353598,0.13682123245881633
-0.013725490196078395,-0.00026500596263410656,0.11447562776957164
-0.02604786460399311,0.04393424036281171,0.08499042568861387
-0.04449710373880984,0.004428452809299656,0.0248517367975149
-0.050856389986824756,-0.003182510031824959,0.03714367981572146
-0.054210384718859306,-0.06477786645384416,0.00860708650121946
-0.05060565275908467,-0.056699652313452725,-0.023126990721506546
-0.04441164631691939,-0.03246841461757914,0.047044986768597516
-0.053015241882041084,-0.047841151385927545,0.027761795166858557
-0.0025794189519413213,-0.03960784313725492,0.07255474452554743
0.019702397354643245,-0.021420071400237873,0.09644444444444453
0.07593003886729592,0.020405476566614157,0.19725054062403477
0.10624377755653533,0.024769433465085578,0.19624730852045533
0.10306209242982699,0.04667742803336022,0.16134328358208957
0.06304408873911815,0.01897711978465675,0.09328519855595659
0.08383484954513638,0.039044679994632986,0.08444195490827618
0.07703824690349798,0.0487740225314777,0.0484960911620511
0.07242264558843398,0.07751832745044812,0.12485827664399096
0.021287575796671288,0.09065858363185449,0.09548851370052576
0.04037027513499615,0.12326485285952242,0.1196900511969006
0.025061046138028568,0.1344047788365809,0.060920457568502236
0.09338264430062089,0.17351857102353266,0.10698047606311847
0.09129648760330589,0.18660488626790236,0.14807770683331076
0.03487931252369525,0.14611616515045484,0.09128464818763318
0.04094746125740204,0.12454062882809318,0.08000000000000006
0.04573016675088434,0.11849750033779213,0.09453920401956903
-0.0035837864557588515,0.04025287059734215,0.06147972617166933
-0.005265797392176551,0.020056569812291106,0.045322793148880075
-0.018361923169847742,0.04433877393651205,0.09308582189938124
-0.06898591882617439,0.03922863558314639,0.05895020188425316
-0.03968738551715716,0.015495867768595078,0.055145578961492005
-0.034979423868312765,0.00758245924428167,0.056726308813783974
-0.029717323024885334,0.011969257906009683,0.09041542221015472
-0.0016123031129851848,0.016927741283476547,0.10912096996417749
-0.008696748172422457,-0.02805239742956001,0.09175458078845085
-0.007014521289687514,0.011659979939819366,0.14763191580145066
0.0367310625317741,-0.014617057260207875,0.15636518287496437
0.02250762970498469,-0.04851496864276427,0.12903678741926422
0.004389815627743563,-0.022102820857247556,0.12078376487053877
0.007470119521912458,-0.020576131687242833,0.10140193276167148
0.009565217391304299,-0.01824112104373043,0.09809485204702054
0.048823903369357775,0.023068336847327293,0.06424977422268081
0.029619531540463512,0.04713889589110152,0.06814091025970682
0.00894936864043158,0.012798424809254147,0.05770466521012717
0.014426066409650499,0.0367310625317741,0.07740060758156123
0.015984015984015998,0.03458799593082399,0.05061983471074383
-0.002100840336134475,0.0127931769722814,0.020472639959560276
-0.009597637504614263,0.002116533864541854,0.014111125110243043
-0.03370105467329375,-0.009813664596273369,0.006947953511874648
-0.021786230139624486,0.033312142403051366,0.004325259515570864
0.037910085054678064,0.05861940760936924,0.07096288866599795
0.046463160475665156,0.046463160475665156,0.031166948538294253
0.03957718780727629,0.051859221489864465,0.0008283043426812587
0.01003095975232201,0.018481518481518532,-0.0040297960678959376
0.011181513231457395,0.0058082056351952405,-0.014887436456063954
0.041023710952201864,0.02104097452934672,0.0024160425223484277
0.014396456256921394,-0.0006061340768577665,0.022448220265409928
-0.06134394755326615,-0.034906114588348476,0.010587345601210024
-0.05236644798500467,-0.017132442284325596,-0.004553285749446277
-0.01643414518798771,0.019860242736300167,0.05732079308591752
0.04107405590975961,0.043633235004916386,0.07973041709053912
0.027153212925420736,0.035294117647058754,0.048538818512479494
0.01831766690768855,0.0498198533979377,0.0520418326693228
-0.01673944687045118,0.01693639442980816,0.006956521739130463
-0.0198303816413071,-0.03297649809277707,-0.0007628734901462462
0.010631722091729502,-0.04296417700772655,0.013136695997025683
0.0030051688904916456,-0.022492970946579215,0.022925095010420556
-0.017547991991520375,-0.013714826200047252,0.03743315508021397
0.01411483253588525,0.03948013732221676,0.05869130869130873
-0.0205917159763313,0.016832534709423818,0.022738507167572954
0.020972119417715308,-0.002651241262954915,0.01833394856650682
0.03842728082453233,-0.010067928190198912,-0.010667959752697243
0.009663608562691208,0.02943377400848091,-0.006499759268175157
-0.006471716203259733,0.02484855977253066,0.007290400972053567
0.020618556701030914,0.02344031734583487,0.043766090474439225
-0.011087520641660742,-0.012601578141561574,0.03048180924287124
0.02259545674238751,0.01232057416267944,0.04804953560371512
0.016191396810053035,-0.004733727810650954,0.04485029196173437
0.020095576522484997,0.027017024426350823,0.044410989838163425
-0.00605766900896535,0.04389871484921749,0.009474590869939833
-0.009529553679131558,0.004403669724770636,-0.038749707328494525
-0.04287056612638015,-0.02337008628954941,-0.04533739456419874
-0.03411259541984732,-0.02924958043634617,-0.042563253724284635
-0.06947890818858556,-0.07112526539278133,-0.03445316331535069
-0.04340071343638516,-0.027912034799420036,-0.011549330384568101
-0.04168168168168167,-0.03600773320444664,-0.03856350927934445
-0.02608483666504145,-0.020953314544786102,-0.030810286268801456
-0.004993301668493443,-0.01017688393506183,0.01895734597156393
-0.03423732973370956,-0.0506634499396864,-0.027073803931264653
-0.013460113608298387,-0.061663143058491895,-0.03966822935448969
0.045968253968254026,-0.01753339694656487,-0.029914026616417292
0.047110006215040294,-0.004608294930875583,0.007655502392344505
0.13010779644021053,0.07205707491082049,0.06698224852071002
0.13466833541927398,0.08900900900900897,0.11843079200592146
0.10624235006119942,0.10165772793759129,0.15001908639776043
0.13621346886912322,0.08902691511387166,0.09382262996941898
0.13005382400801102,0.107865995827709,0.08197507190795786
0.10719922301808908,0.12620400098789822,0.09326300647326781
0.0749050332383666,0.1498412698412698,0.0680585043642368
0.0011091393078971664,0.12193909260410195,0.09062348960850652
-0.004853298036620315,0.13085986462772622,0.09014016433059441
0.014936932949767744,0.14806007509386732,0.12400441122411475
0.026168642361887758,0.12313341493268057,0.11170341652532104
0.009858218874612324,0.1584498094027954,0.09975874547647763
0.00010964912280691781,0.14169483039178862,0.07129433873619911
0.0019878520154611467,0.10149326210999149,0.08218034351145038
-0.00011079104808337154,0.07134377967711307,0.06640671156800194
-0.0004433606739081361,0.00022182786157952787,0.07229488703923916
-0.0064319197645263644,0.005294506949040415,0.09477477477477478
-0.018417611159546772,-0.0034299623810577816,0.09787908337396375
-0.029395634528902124,-0.010400357861775966,0.07770064547558148
-0.029163468917881775,-0.01916260522817904,0.08663639710393917
-0.02005951724898057,-0.025109649122807085,0.09792541368239062
0.050747922437673114,0.04726670347874104,0.20419047619047617
0.04590818363273438,0.044981165521825704,0.172405220633934
0.047070441079657736,0.05774772777654631,0.19616445224367016
0.028644387698456897,0.010029434209091918,0.15957446808510636
0.05074019663238795,0.01329555361813425,0.13806609547123624
0.020892151326934033,-0.008445760666885993,0.1486658195679797
-0.005173771229332963,-0.030259839929832156,0.10714732757541623
-0.040915322155435994,0.0024247768103163106,0.10416413742867546
-0.0355173876166242,0.007977839335180042,0.07989078822412161
-0.05637640155087508,-0.0014415613218009499,-0.0012200532386867728
-0.024284943335132217,-0.008119376782971198,-0.0028678579307301003
0.005807700580769972,0.03830354168979686,0.034742199601681796
0.024446902654867184,0.04655893321279246,0.03567434578394093
0.01469756924816277,0.013551665725578801,-0.005870624723083752
-0.01858163826278172,0.003936565065796969,-0.02127192982456138
-0.026492250192371076,-0.0661183169882948,-0.0219768083931529
0.043420322043309235,-0.003816793893129765,0.04099268779082637
0.05143805309734503,-0.0039819763177198955,0.053535801374418074
0.03411035072711717,0.04382083108472734,0.05428976343617126
0.03779289493575208,0.033663153366315285,0.04740627724498686
0.06005571030640669,0.05243362831858401,0.0435450257760228
0.0909701994174321,0.1009609949123798,0.06764609143734242
0.09688346883468832,0.06805937328202306,0.07064917888239829
0.026394210302256322,0.0601297130922282,0.0685872576177285
0.02356654392425049,0.08039977790116612,0.07884231536926146
-0.006824526936200979,0.0624999999999999,0.05387316216809301
0.00197690146706896,0.02972626176218992,0.06916842455867664
0.0037838974143367607,0.03120613324694958,0.07921799073341627
-0.029780242349558346,0.05270194986072428,0.06696781479390183
-0.0345892526250772,0.050638583912166656,0.05477449105837369
-0.03432185815014519,0.0516034327009936,-0.017926816408309638
-0.022921163531709362,0.011707109408258925,0.007845631891433514
-0.0118688183237897,-0.0014729089952656557,-0.0054490202242482464
-0.025129802699896175,-0.029262744287043722,0.013275769023205502
-0.019685863874345504,-0.025907813963167152,0.0068832006883200745
-0.01915749364944964,-0.025961740592810582,0.025110619469026502
-0.017487737257410967,-0.05380981721092622,0.04171848501978516
-0.014925373134328365,-0.05558987029030271,0.008686091258933392
-0.0448138018093836,-0.05848195769390295,-0.0018687479388809684
-0.04730797597724155,-0.07061362935553504,0.0041088284286508
-0.028973157221985502,-0.050910983862571584,0.008407079646017598
-0.028626361888485437,-0.05565939771547248,-0.027587681779298528
-0.006366677457645445,-0.03581151832460735,-0.005722924090271041
-0.003690036900369041,-0.028365791701947574,0.022841225626740916
0.01842162633529553,-0.0037321390488376446,0.046717454626932574
0.028193832599118968,0.0024696660581982606,0.05420054200542002
0.03328909533289101,-0.01714706501157159,-0.005640698169433663
0.01612549363756032,-0.024022758402697304,-0.025460284061020536
0.005168242797448855,-0.026310183212611835,-0.05480301933615963
0.006516072980017469,-0.010040589617603051,-0.03568827385287684
0.030174291938997778,0.020502859609366476,-0.0059911709060332915
0.019158728459809395,0.033427393097460366,-0.02218114602587797
-0.010925449871465253,0.0065402223675605905,-0.04941321803582455
-0.002996896071925518,0.02588105726872256,-0.0341144753214433
0.03281874122854374,0.05806237558062376,-0.01665124884366332
0.04222732742588338,0.04508556384379113,-0.008120770432066644
0.046611998273629614,0.06663734330327692,0.007268951194184869
0.014909590779317023,0.042354474370113006,0.0050261780104712455
-0.01837849191346356,0.01819172113289762,-0.010690093141405642
0.0010829542993285068,-0.010596168254308135,-0.014288760929835822
0.10059044551798164,0.09811482433590399,0.10082680124557072
0.0949095850318804,0.12116022690784536,0.10193561960866818
0.08890521675238794,0.11993954442405268,0.09303550732272678
0.07690721649484529,0.14276337381030518,0.11269706007669364
0.08324650968951859,0.12181700474751825,0.11055330057679977
0.1076281159730395,0.09474463360473732,0.1171900291356426
0.13511466897447003,0.10197437513127502,0.13881050575211643
0.03833398361295364,0.15280485163526097,0.16034445171135828
0.01031026252983292,0.1361245303274288,0.1655286343612335
0.041160593792172843,0.12898505278561725,0.1945366069453661
-0.0023932605782117557,0.09383856408103283,0.14315489249670907
-0.0004809079542175354,0.07134020618556702,0.14273147129975813
0.00453974693325605,0.08355907480725147,0.12945264986967855
-0.013818736300390762,0.10709318497913775,0.12723311546840965
-0.030906528886801374,0.11596711380354824,0.1041421384994112
-0.030993102144949457,0.0002926258291065269,0.09843616109682946
-0.045181001759096465,-0.015465393794749446,0.10382104249170489
-0.02091929757220989,-0.016483516483516425,0.10147900248299693
-0.013279445727482636,-0.018380241240666166,0.12175910731867422
-0.02259615384615379,-0.022314129075694848,0.09678463530427275
-0.021260146888287618,-0.021732831063459867,0.0709527334249763
-0.019968980224893393,-0.03650052415896324,0.06175173282923751
0.009653827401267764,-0.027336777829967088,0.12129088152479968
0.004751284786192273,-0.02088254748181039,0.11239935587761672
0.021072233656767674,-0.03545967965929079,0.08895160447371177
0.026038619075482616,0.009596008060646772,0.10433504775900071
0.013477619281849387,-0.008660508083140932,0.06206185567010305
0.020932069510268606,-0.005769230769230715,0.0773077724525943
0.037784371909001066,0.01391573250869731,0.12249919760350918
0.01767432876183116,0.021423032183016753,0.13987451319774996
0.01708164447017946,0.02769380789858609,0.027994537651190057
0.012478402764446122,0.022786773974595255,0.006968973747016744
0.0018059119855528176,0.03302950112711952,0.016001542317331897
0.021063871092991668,0.02584357323971125,0.006988320888378365
0.020019342359767826,0.03757993113625178,0.014427238626526883
-0.013915364086923445,0.021524486571879865,-0.0006761325219743783
-0.01603872069849101,0.02551928783382802,-0.011912703707233394
-0.01413796375367677,0.0034769171334749797,-0.023954908407703118
-0.010333712552142618,0.0074309978768577105,-0.013606727770953394
-0.02371916508538899,-0.012286427337300836,-0.04731043421905378
-0.03793136229679622,-0.03811424769508594,-0.028883984262546694
-0.03688252583673083,-0.01397786837507278,-0.022517321016166315
-0.02377730523873955,-0.023210831721470072,-0.028846153846153848
-0.03829089506172852,-0.049656881433473195,-0.036432160804020196
-0.028488931665062635,-0.04204232703805644,-0.021519968980224884
-0.044927675064661346,-0.053989942119745685,-0.027791321306679613
-0.05549076773566577,-0.07859309821767166,-0.05759720740812565
-0.03023715415019765,-0.06888045540796968,-0.03812604136038421
-0.017424689899586492,-0.05114554615457739,-0.026623756582796993
0.004356435643564334,-0.038209917512088756,-0.0020659124446631375
0.006418613980543582,-0.030059926541658608,-0.00918246445497637
0.0028729938577373316,-0.023630401234567926,0.0012858555885263074
0.01053159478435303,-0.030317613089509195,-0.026946107784431197
0.03066159069863159,-0.040425328096560964,-0.03329473074696007
0.009068677399633183,-0.03760932944606418,-0.049433672489921344
-0.0034064722973650274,-0.01709486166007909,-0.054557551563539544
-0.03854495268138798,-0.039870053160070855,-0.05329062317996501
-0.0277030393622322,-0.033960396039604025,-0.05638297872340437
-0.04870097797095729,-0.03419917761508371,-0.08215783454060241
-0.02818858560794048,-0.030017832375668727,-0.07079813988801374
-0.031746031746031814,-0.027181544633901784,-0.07970395673213783
0.010299909118448915,0.02942689577116987,-0.05147895335608652
-0.010053282396702523,0.003362543305481947,-0.06574952561669835
0.010663385624935835,-0.012423604849213597,-0.0629337389485693
0.02562262990673363,-0.013505520504731906,-0.051199393192377034
0.03354101765316723,-0.008171400099651152,-0.03798569495457175
-0.03145746093351035,-0.06322236491158753,-0.08535879629629638
-0.013300340241261904,-0.05012406947890816,-0.07892204042348414
-0.052573713143428194,-0.053708695218129134,-0.09196283168885903
-0.0357469279983751,-0.0411996364737958,-0.07725947521865892
-0.04037739677386619,-0.04906001809590827,-0.06531620553359684
-0.030078944738682833,-0.004819030042038336,-0.04449694821815314
-0.03717472118959111,-0.017833350415086553,-0.051188118811881206
0.01687229779605619,0.001349948078920142,-0.0328953966502857
0.005433646812957116,-0.017260749668062483,-0.04676045175351693
-0.002742905369764797,-0.025363439529848375,-0.05185556670010032
-0.0031595576619273,-0.05397301349325329,-0.02613437596460533
0.0023258272544666335,-0.0371686808164923,-0.03393111880986344
-0.02266639192252218,-0.03763822664096575,-0.049594229035166845
-0.02556610664718776,-0.06685320275806933,-0.07945583596214513
-0.011822047080783993,-0.042600221038882696,-0.050423517688091564
0.008106422781126596,0.022883053885901103,-0.041786031808752386
0.027927642018406862,0.015360501567398106,-0.03553349875930519
0.030639197041732607,0.029116995463656405,-0.0261555355894979
0.022676932812994318,0.021169036334913016,-0.020902756740381778
0.035736875395319424,0.038693307960672337,-0.012265004523977068
0.04497751124437784,0.005357510818050649,0.0005126627704295822
0.028964214503095716,0.023166023166023154,0.004919544942092897
0.0037113402061855613,0.00964430156590265,0.011007268951194209
0.014407739014098914,0.024423196840573626,0.006740884485752187
0.003382880574064565,0.035438485136993485,0.009176203732343548
0.0054661716171617285,0.030005282620179492,-0.025587206396801624
-0.026564885496183202,0.008754350806876893,-0.028739717680511815
-0.01885632301701172,0.009276829011174314,-0.0287105610226235
-0.03284038755736868,0.015527950310559037,-0.05236334565803932
-0.04180361544782244,-0.0209885612341274,-0.06269466492514815
-0.05346454296439075,-0.03814432989690725,-0.01613413476747866
-0.043931344503473614,-0.03694555932901104,-0.022152560083594612
-0.038465483639347625,-0.03905689390056384,-0.011077117839434658
-0.0038686741948975797,-0.01742986798679866,0.0033701948393890803
-0.014936285773971096,-0.040101781170483436,-0.002960143778412106
-0.019297690604239148,-0.04693584750973558,-0.04182979600247272
-0.008468217386643865,-0.056603773584905634,-0.034749034749034735
-0.013612004287245403,-0.05474527526705011,-0.04562895364513124
-0.018273135285317307,-0.0679719995941969,-0.04520889627935974
-0.021122253040324192,-0.06252554147936239,-0.029302866814767757
-0.07001154613204578,-0.09118883988101345,-0.06391970417327006
-0.036369419997879404,-0.049769970723546685,-0.04145132370003171
-0.014086021505376368,-0.042302068101107135,-0.03341766814252584
-0.00929729729729729,-0.03363914373088683,-0.018633540372670752
0.027273715092904542,0.013399078143423731,-0.007870710462797775
0.026232720148035227,0.010503751339764245,-0.028041237113402052
0.03204010462074976,0.011968369309681605,-0.025419368117731798
0.06918735891647868,0.010561126520162249,-0.028908252178369998
0.03246038732394369,-0.015114936496273724,-0.03228135313531349
0.013741956592867326,-0.014420528045806376,-0.053944020356234065
0.0005456132693146788,-0.014086021505376368,-0.06036072965771675
-0.007721599323037909,0.014162162162162187,-0.04324324324324319
-0.012409843020789157,0.011735303705313466,-0.04365242399342646
-0.02291446673706443,0.00718406443888099,-0.06127625038044022
-0.021746014989971522,0.009917175239755847,-0.053228442991418004
-0.029947777896195273,0.027313769751693022,-0.06636578110575443
-0.018612157073695578,0.003741197183098629,-0.046214972814721894
-0.022576071545424726,-0.022576071545424726,-0.06392312513056184
-0.03730945528195288,-0.01451331296377126,-0.047664241273858446
-0.02910535925249698,-0.04379098794161202,-0.030978668667595674
-0.03080082135523608,-0.048790835808230744,-0.03879957127545542
-0.03744469623394841,-0.05807814149947201,-0.04680487283607604
-0.0020874533069654773,-0.041169640029557746,-0.031043311286537197
-0.03365490024117511,-0.06053501012469352,-0.07473496378713121
-0.01684891765230981,-0.052071005917159796,-0.06574064256176443
-0.00254678330195996,-0.01755916675755262,-0.03139784946236561
-0.005752212389380644,-0.04189318835945002,-0.028324324324324374
0.009812667261373722,-0.027386961658253647,-0.015973052265565564
-0.003026905829596368,-0.038906300659245587,-0.0320017415913791
-0.04172630188263781,-0.06075321031617563,-0.051438535309503035
0.004197390811117304,-0.02746649088112503,-0.0009029345372460305
-0.0004539779820679407,-0.03453190089892574,-0.03091989436619721
-0.024755772646536455,-0.019750055791118167,-0.04188024866397648
-0.030707610146862383,-0.0353227771010962,-0.049323439546049716
-0.03169169611307426,-0.029977876106194776,-0.07245610323672529
-0.01281907117957945,-0.021074933095450495,-0.06883750530335166
0.0040211397058822875,-0.020291479820627827,-0.07719112988384375
-0.005874378671486625,-0.03115710668281403,-0.0710440198458778
0.010786874077438434,0.009869540555870564,-0.05126292230629865
0.024473534433693864,0.021450459652706852,-0.03173749327595484
0.039026629935720744,0.004884547069271734,-0.012760388264805342
0.05336982552172433,0.027703604806408648,-0.015350175887432019
0.028590955689713985,-0.0028710247349823886,-0.030179357748899176
0.014189266506465213,-0.0033734397840999813,-0.042148492380849514
0.004999999999999974,0.016084558823529313,-0.045645840077695087
0.006740058413839682,0.012426570266606514,-0.015381234893429923
0.00699999999999995,0.02906778698762351,-0.006467879850909926
0.0005523641184268356,0.030961866818440514,0.010600312430260975
-0.006062574428927165,0.05383379247015608,0.016609456317129886
0.017386489479512816,0.04766792108564268,0.01626106194690264
0.03689495656098398,0.04681626608953183,0.024754683318465642
0.03686114880144737,0.049319144066826894,0.02802690582959641
0.052332068734657414,0.07170454545454548,0.03831333259936149
0.03343263819927178,0.05212311840035948,0.06250709018718083
0.025836369658827466,0.0323333333333333,0.05447735784814433
0.016338089532730637,0.03082191780821925,0.035857015985790455
0.032654838358550126,0.027065064414853308,0.05551846906987104
0.031011969532100045,0.04928017718715397,0.04626766784452294
0.04667393675027264,0.08292903080221155,0.07927583492634653
0.011769695684444909,0.07892356399819091,0.0962775735294117
0.015801836429639164,0.06159339433162236,0.07478535924084959
-0.02647723603487239,-0.001986097318768538,0.027023958215056317
-0.010609795305969446,0.019322071326046155,0.05088218554354011
-0.06292821756087276,-0.0316958936934974,0.02043158861340681
-0.045382585751978864,-0.015456623489713744,0.03147451248717077
-0.06574286309647845,-0.02426550598476609,0.0214147397197858
-0.04474952840075452,-0.00599781897491818,0.04302551779379798
-0.05034685726298094,-0.04198918460396573,0.02670454545454539
-0.014704256495301252,-0.04847320093956857,0.0011233430689733602
-0.04105285961871742,-0.04714239586696799,-0.01633333333333332
-0.010236220472441066,-0.057014253563390925,-0.027949624392399484
-0.03792150359314546,-0.08274480868556981,-0.057919237847786166
-0.052302888368462114,-0.1031134564643799,-0.058914728682170465
-0.08524410312671432,-0.1312773494478017,-0.0592350220015796
-0.06928610957387926,-0.11873821001886395,-0.04918588873812748
-0.06092908438061049,-0.12034895942821108,-0.06616826601205096
-0.048458149779735754,-0.06865671641791053,-0.07050645481628601
-0.032730992158199745,-0.0780979202772963,-0.06028486253726393
-0.027579866697310867,-0.04814398200224973,-0.07831390916022217
-0.005530713108966802,-0.06567164179104475,-0.08011320343964297
0.00023986567522199848,-0.06992305118768814,-0.09249183895538628
-0.011178499227018643,-0.0877674163466813,-0.0932388222464558
-0.00023897717767948405,-0.07393469839512998,-0.11281942529954406
0.008903133903133903,-0.046342010771992924,-0.09256886611146703
0.0063447303489602425,-0.03253134530667565,-0.07814013561511131
0.014771921531552823,-0.024093647005341407,-0.07973421926910296
0.03952195006508093,0.009538037232820023,-0.07399599451881532
0.0623501199040766,0.042598258413744296,-0.06490765171503964
0.04365604329524949,0.04077716478771895,-0.09585330277141074
0.050914306202940185,0.04566535854441674,-0.0784950744078809
0.04094599364631138,0.05711554546540807,-0.07010721042673956
0.06363105662580255,0.08143399810066476,0.007186290768380226
0.06882496797484565,0.07836916931030433,-0.005849220103986049
0.06112692088787712,0.10163082013708336,0.04859392575928001
0.05022573363431155,0.10105312980712332,0.028745163073521218
0.07317354229085037,0.11666666666666653,0.03858592617374812
0.07107926759922666,0.13265183403487674,0.03324190894130555
0.061263705210805944,0.12214652802677183,0.03918096292197019
0.037870472008781596,0.11248382162607369,0.06092908438061033
0.04913924602309877,0.12422650321074138,0.08765390263187625
0.039154687835228554,0.12810061721206475,0.10092055915444949
0.045889306824287976,0.10779738190096755,0.11836359457595952
0.03962203371631051,0.0927765237020316,0.1393269004471639
0.027181991930346018,0.11477298916801099,0.160230271048213
0.03504100543188845,0.10519731604685545,0.15566654774646216
0.02062400846113171,0.09076523115180289,0.15306488230374002
0.0004154117769237931,0.057409440175631224,0.14351851851851857
-0.0033033963043254608,0.05197210721290037,0.13441428739278577
-0.01161117961364566,0.03186011585496673,0.13672890569605287
-0.0033051022516008386,0.03707684040838262,0.14187670098213223
0.0004134794293984521,0.03919252657575439,0.16043165467625892
-0.0025725457913150854,0.02919940539392652,0.16572459410703547
0.0015544041450777791,0.029396101821280277,0.15513326162304295
0.003010484791861375,0.02189317821258601,0.13683962819155207
0.006835836354220576,0.009554470869249012,0.1349678925861061
0.013099074747894845,0.005987405801589742,0.13485501339233721
0.0016580310880828662,-0.006781750924784183,0.10028457598178717
-0.010539367637941683,-0.010948151208427888,0.08081264108352157
-0.0009285051067781224,0.0010336985734960568,0.1159253284166859
0.0033109156751163285,-0.0021609384647047537,0.10280905265552134
-0.0014489753674187596,-0.00020725388601032147,0.09053916581892173
-0.01064705277234849,-0.0016090522163396776,0.055708013172338124
-0.005438686505900473,0.0038322112894873593,0.056003486598387456
0.018725429339954504,0.02370308763904773,0.056318386612314954
0.03936925647451959,0.03139896373056996,0.06963997850617952
0.03128872366790583,0.03192808431494114,0.07237195318372178
0.05486232855522334,0.05529763747033941,0.08611170099808875
0.06706053067993364,0.06518365235385408,0.09649589945681118
0.08656095658955033,0.08155661353756981,0.10523532522474885
0.10359059017746587,0.10029832321777596,0.11081109149444374
0.07738397481466441,0.08866085171883017,0.09517910601837512
0.048226665327037045,0.0793503000206911,0.0720304151253597
0.04916391308701308,0.09419381787802836,0.0822144185085727
0.022387330139798534,0.07992565055762076,0.08104196816208398
0.01466731423020875,0.07724038362380112,0.07491253344309515
-0.019425837320574173,0.06208540630182416,0.06186528497409325
-0.05235602094240833,0.05391213932934757,0.05221633966573239
-0.04392496936563292,0.04653322327692948,0.050543759709994925
-0.02578357136010733,0.03219254595308217,0.056658696330179885
-0.03187631227333464,0.019190193911383466,0.05119170984455956
-0.027921208644100227,0.01792330029037741,0.05042364124819173
-0.027474631437870864,-0.0068432886890214375,0.04807593108428759
-0.007904752610520175,-0.0125303545410394,0.051836523538541034
-0.015193370165745918,-0.04478468899521538,0.0331194369695714
-0.01567583555161198,-0.06656694091249056,0.027054829750025818
-0.011216056670602131,-0.0526911113205769,0.03129810159055923
0.008675078864353267,-0.01926579123933677,0.058555762466376955
0.01229588825496754,-0.01784691735063948,0.07466583124477852
-0.005315483807461426,-0.03375406387454581,0.04347377116893839
-0.007475900059020175,-0.03408003063373529,0.04052799835000523
-0.009617311160088097,-0.03522982336293549,0.02466832504145932
-0.0012019230769231225,-0.016179952644041047,0.036859890824018735
-0.001094527363184074,-0.010253376713004103,0.03580272389599669
-0.010848318999218134,-0.004230617866981571,0.02782573372600787
-0.025556311340005786,-0.011435331230283879,0.007535416457349542
-0.010984661058881736,-0.01691914223883532,0.0007009111845398335
-0.012487611496531268,-0.019194802638054953,-0.02590673575129539
-0.0031357475217479495,-0.030592169978359233,-0.04273919378339005
0.0019053349378258897,0.0009016229212582991,-0.04392344497607659
0.010359597569479094,0.015925480769230803,-0.05170157068062815
0.02302144056911385,0.030248756218905534,-0.024036195682910707
0.060530514559234076,0.03938623924941362,0.019361640946995076
0.07174304582749652,0.04081236031483824,0.02223706814277532
0.0980529907667603,0.08273132112815437,0.04618473895582328
0.09954337899543382,0.07393458870168478,0.03733486502010345
0.08547692923631274,0.09700586688246007,0.05835854396408709
0.06388642413487124,0.08212996389891694,0.06462115232833462
0.055630674135599675,0.08875385994620975,0.07759045647244395
0.04306535025858028,0.0960379409149295,0.0914010232192051
0.035850994304920204,0.10640207419226168,0.09375000000000006
0.025226213326021436,0.1223734240544327,0.10338382844776713
0.04014396456256916,0.13117221999197104,0.10945959247957467
0.03005993545412624,0.13353627600202939,0.09885894156993899
0.03799462515058853,0.12110899809828855,0.12211981566820289
0.05343092406221412,0.13516711032238976,0.15324519230769226
0.04300009014693947,0.11744253428626614,0.15124378109452738
0.021991888237944998,0.06619652092148573,0.10818999218139179
0.01212445395382009,0.059938381103538434,0.10319696822466237
0.013574660633484174,0.04414587332053741,0.130529440870856
0.02381165517858751,0.055463270579549695,0.13349851337958374
0.042942594411213175,0.07717842323651443,0.181671049969654
0.023449713392391894,0.09202112871837649,0.1817087845968713
0.023941227312013792,0.08389752973467522,0.1800976192847893
0.03580562659846549,0.0587758045614351,0.16045845272206313
0.03725887430635078,0.06137899954934657,0.17431192660550462
0.020483193277310956,0.039315324953196014,0.16649989993996397
0.006994841304537878,0.021825924940111863,0.1558610999598555
-0.015579524054100269,0.02945125772088449,0.16692034500253683
-0.011201629327902302,0.04026426211945354,0.16624962466219598
-0.04760698911116739,-0.020062532569046398,0.11239278320023652
-0.06717752234993615,-0.053068280034572174,0.05814178095422055
-0.08058763586956529,-0.04515389364141462,0.01805359661495065
-0.09264024704065875,-0.06826389500572536,-0.012417141256652024
