0.0,0.0,0.0
0.0,0.0,0.0
0.0,0.0,0.0
0.0,0.0,0.0
0.0,0.0,0.0
0.0,0.0,0.0
0.0,0.0,0.0
-0.05306739631336409,0.0,0.0
-0.06652314316469309,0.0,0.0
-0.030267497251740532,0.0,0.0
-0.0633311767665876,0.0,0.0
-0.04546762589928053,0.0,0.0
-0.03393356768778241,0.0,0.0
-0.007737086434308535,0.0,0.0
0.025093148809976516,0.0,0.0
0.04235854858548578,-0.023689516129032202,0.0
0.02947400241837973,-0.022461428058844605,0.0
0.03952417498081333,-0.007328691828508612,0.0
0.02102803738317751,-0.026166343181654908,0.0
0.019901975345314175,-0.011942446043165442,0.0
0.023169463834843345,-0.01155032642226835,0.0
0.032119278985238364,0.025274482352074114,0.0
0.0437347887012317,0.07611588472359532,0.0
0.04411980619585957,0.09340405904059022,0.0
0.04318936877076429,0.06786577992744874,0.0
0.04155901675647741,0.08288564850345342,0.0
0.025702635794378922,0.06172746457642446,0.0
0.02344317027144716,0.047155799792068874,0.0
-0.013295960902687901,0.01953066983514032,0.0
-0.039217071791972945,0.00860470291521398,0.0
-0.058637418266188596,-0.012537797772697227,-0.035930299539170575
-0.051380042462845145,-0.01600352371164298,-0.0381054897739505
-0.05442948263642811,-0.014987080103359182,-0.022205936240381103
-0.04919429261020804,-0.0112940134347088,-0.037164833584932895
-0.04857811502730299,-0.023154215814766323,-0.03482014388489211
-0.0262218661228057,-0.02968500508056324,-0.04089246000430439
-0.02390233139663161,-0.04614057783527374,-0.022032274703411753
7.468817686174716e-05,-0.05384397964951953,0.018173522926013343
-0.017233661593554182,-0.07382408774520144,0.012684501845018275
-0.014765402488382545,-0.06970983722576095,-0.006574969770253965
-0.009631178139465372,-0.05988660524450736,0.01803530314658476
0.0037268932617769827,-0.044083197274082546,0.014923123304190456
0.029321564814122344,-0.02411176512304076,0.021907025100252615
0.026597347799879455,-0.00757520576881049,0.011807515223525944
-0.018371919342793187,-0.03331617268515114,-0.02499814553816486
0.02140742427693025,0.004929419672865973,-0.007670182166826404
0.0072270825408902025,-0.012235153685466923,-0.02804287182498894
0.0603090840557859,0.05418977664518077,0.03839055001845713
0.05146294371008471,0.0571151261758997,0.0451760537388352
0.04316546762589926,0.06999105545617185,0.04521625163827005
0.06275229357798173,0.08310270027675977,0.05095079111627239
0.10301278149726105,0.0923749246534056,0.04197211441713385
0.0918617614269787,0.09716206123973108,0.03808648954211409
0.09463746223564955,0.10020496470052394,0.018983336848766203
0.045289726270885206,0.11844807911753535,0.040481245576786964
0.039197683452221084,0.10923482849604206,0.042806520198440765
0.011494252873563059,0.07827120154463087,0.030737559451976888
0.025414364640883827,0.07899135237264715,0.05297496631444578
0.05035177265829778,0.117651376146789,0.10918493699468286
0.03301340957048529,0.15459525258673154,0.11612855777009629
0.05720002759953075,0.13875882571534734,0.14437224587347833
0.0552305808733504,0.17175226586102704,0.15741569680692327
0.04607856463232297,0.09434767152506207,0.15365012741717884
0.06150137741046837,0.08856557666501866,0.1507391369269822
0.031856142241379434,0.06729362591431554,0.14199463327370312
0.02974783293932231,0.08294198895027617,0.17293739247512907
0.031035846072746495,0.07925231066353987,0.17894816154309826
0.01520689205064621,0.05881151725546263,0.16168782673637047
0.02384942632461014,0.09597736838473743,0.20579974189630315
0.020400207900208,0.06829002856754177,0.19482693039178406
0.03120742230584573,0.0801957319559604,0.19819072747832636
0.02832713269368842,0.08505509641873295,0.16998366255755246
0.0003188572157388647,0.05643857758620706,0.13988808952837728
0.0023007605291750087,0.02987916995009201,0.15104587155963312
0.01144326583092254,0.03670268845545613,0.19697200243457103
-0.010954419541677217,0.025323064874037304,0.16759568933481964
-0.004775245129249968,0.007541575351295707,0.18058912386706946
-0.033534667170001156,-0.002014033264033094,0.09214361891219344
-0.01529673119644573,0.006552909881269,0.09569884878875615
-0.02103786816269292,0.002284446184974834,0.06973180076628345
-0.04361410444430277,-0.043492124226771206,0.03584254143646407
-0.03851776520688999,-0.033233207643637686,0.04338529452338268
-0.013876511775938936,-0.004050144648023297,0.05452317745558499
-0.013050988420446498,-0.028771090405439393,0.0644449044366246
-0.01113208775470352,-0.03285368648923976,0.03319276288940277
-0.02700786386489621,-0.050270542343022584,0.025893706673916016
0.011135712425110758,-0.014471596318629014,0.06935261707988996
0.025601706780452052,-0.01931658804029071,0.036031788793103606
0.03199576915449199,-0.004590958362558176,0.02515103756238516
0.01065065840433776,-0.004830610818025928,0.03169478123352664
-0.0006482141699619027,-0.01865054105665186,0.006200234956271953
-0.011981566820276452,-0.039856695029108755,-0.03261570194662869
-0.013580655846306612,-0.03066206627172715,-0.032614345114345
-0.05532298576672894,-0.054531391001675776,-0.048335820411341004
-0.03900409543002015,-0.03731440479291476,-0.0351152013576137
-0.04554480814810078,-0.006600440029335349,-0.04980549709839935
-0.04815737369866509,-0.014807959278112045,-0.0475490509362817
-0.05033404683141981,-0.05493157758843269,-0.058759241401478715
-0.010927505330490502,-0.03779088610877042,-0.06547469151347271
0.0012088650100739208,-0.018564845292955847,-0.050808608175219594
0.019839105535860352,-0.009009605829744851,-0.0588272304014093
0.031049178109991034,-0.01835512333354816,-0.032561091716915416
0.028389261744966376,-0.003900409543002163,-0.02314165497896228
0.05032543783130913,0.0026904106079046024,-0.001912899317732649
0.06577419575165627,-0.003385067382001668,-0.008199326256912352
0.06460522770142821,0.025037296490886773,0.005919796308084067
0.0580225382345048,0.05097281449893375,0.009084511547565654
0.049468547362791666,0.05433176628609807,0.022003775795846593
0.015877181472247842,0.055631306244886804,-0.0019337372695628656
0.023689877961234902,0.06108367719678009,0.021489971346704946
0.022168274452181683,0.0738255033557047,0.06673778251883453
0.019994873109459143,0.06797289136415484,0.052158392278706854
0.01075745111687647,0.09097739225462737,0.03104828298476635
0.008875927217396854,0.07201562921045539,0.03150320866014121
0.0005732849226065571,0.05366246310705661,0.034101382488479305
0.025122707310772322,0.06110034093188038,0.05154024511427626
0.0015937778911130943,0.030770240125967893,0.011850325239904704
0.0073124999999999215,0.051817529204463864,0.04771501007605782
0.011874842925358224,0.028876253753274198,0.03164435334059315
0.0044450009390847554,0.028197897974878275,0.024717378808200834
0.022811537736441876,0.02993102575460349,0.05571771421158464
0.033613445378151266,0.029353959297533913,0.0818230277185501
0.019908019908019887,0.031212179119689005,0.08723975822699785
0.027433008720004922,0.04249547920433986,0.10049086446686652
-0.0004963702922379108,0.026966721917633493,0.08969762565108563
0.0048432163924247195,0.011437500000000078,0.08610738255033565
0.007791074545001247,0.01589595375722544,0.0849493390592498
-0.0087245023347259,0.010079509171727376,0.1019739088860051
0.002463661000246226,0.022811537736441876,0.09646995419024518
0.0029649762184200275,0.03367710720651892,0.08914676683659774
-0.016416800892082625,0.00025200025200038096,0.061367738485192905
-0.015519274939474827,0.00942015148621978,0.04048025193544165
-0.03102020638942106,-0.027052180926971432,0.02336357110226465
-0.016822314305151825,-0.012915243713132645,0.015588066185395755
-0.013821742903185755,-0.008289703315881228,0.019674442450653817
-0.016035881051855404,-0.016035881051855404,0.013415174333987246
-0.0008006405124098999,-0.0007390983000739378,0.028593165536042728
0.009447628645210052,-0.010006794737167066,0.02089305051277152
-0.005233621287597027,-0.022673770288687875,0.01885817618186507
-0.006696001530514708,-0.03308709417096041,-0.00701262272089776
-0.017487576272252635,-0.034851387258234036,-0.023812500000000014
-0.01822638426245997,-0.03389201558537937,-0.01853480774063828
-0.018357789572275976,-0.025598115780339627,-0.015776623051399125
-0.0203402366863906,-0.023470140083558574,-0.001193992333312372
0.001871841267860379,-0.011085791710291379,0.022217978100330917
0.009444726166328658,0.003023241166467152,0.003276003276003341
0.0377503852080123,0.01923198183996458,0.028833301508497056
0.04814648825148864,0.04400229577195335,0.01575975677855693
0.05255745470840522,0.03428319808768943,0.020925178515988675
0.03600279880414729,0.02363144994029282,0.015145848915482466
0.0220208883855543,0.014299094598813561,-0.001966085033177643
0.028834776110107714,0.0182445759368835,0.017491993101749044
0.038367346938775596,0.03175890684469959,0.021434307245660804
0.038171244741400746,0.0637043610547668,0.03958617271713552
0.026143790849673207,0.07851823317925025,0.04283319883295056
0.011312492397518635,0.06460080670977658,0.02749799171970579
0.0033769263830047457,0.04615581588886742,0.010699486672026654
0.006340802757941401,0.03981934991412754,0.01320193380438822
-0.0033898305084745905,0.03586258965647407,0.011550749569918872
0.007801161103047846,0.03786510556143746,0.02635954917780379
-0.01513616590191283,0.037802197802197866,0.04093972412924356
-0.005536043812131715,0.033531304132640535,0.053408159404754386
0.003187394755833541,0.018935923278968873,0.06377144314775843
0.019703830620487084,0.01350200705510278,0.04824809712524368
0.018474337798984587,0.022226315466322862,0.046383005467915246
0.03802235179786212,0.05208076828367402,0.06712457071495473
0.007560756075607506,0.016404358353510944,0.03494822485207093
-0.014884734071519379,-0.015420899854862186,0.015848256067885393
-0.027415299892254354,-0.03176211191228182,0.02991886409736308
-0.012469276422276916,-0.019405917018870286,0.057588597842835126
0.0006601056168987858,0.0028265576136636927,0.0676099622254946
-0.002162292029551406,0.016583037571900675,0.06350425708981491
-0.03171445289643075,0.012295834097999577,0.05260479613256142
-0.010064915728664152,0.009596695821185695,0.04580344784195295
0.07161722252932864,0.04692469246924688,0.08656660646447037
0.08179468242245212,0.06353240152477763,0.1037362637362638
0.07211801129120393,0.05716509038668748,0.09261321455085393
0.08017991004497754,0.07979137941370423,0.1002382261315741
0.07415879130801176,0.0708713394143063,0.08533025179418563
0.08448150833937647,0.0779025767313352,0.10186037944372814
0.09445313440019244,0.0644821533060268,0.11992120167446435
0.036797157104373174,0.0773033172532904,0.09497578692493946
0.055413324230528416,0.13942632516430187,0.12185534591194953
0.028594077345563573,0.1180452978828164,0.08253381800846192
0.013657561625582989,0.10835913312693513,0.08685040776236683
0.02409638554216874,0.095952023988006,0.09904979552561943
0.022289089490694303,0.10431589718894849,0.12262880920328002
0.007695690413368546,0.10780759004109261,0.12142900838074261
0.010558903200840429,0.09974732282517154,0.11030126336248801
-0.03164249905665465,0.029632601593397073,0.07794779477947783
-0.0004954310249917617,0.03299766740626946,0.09862648998608327
-0.0023003614853763605,0.03142517411245106,0.0903866874176942
-0.001313269493844099,0.013268931823228882,0.09411905761045494
0.006322904175297048,0.03457551134771654,0.10789726356217007
0.012328169321405298,0.03410230692076231,0.11466154123370774
0.01148796498905905,0.016380826737027367,0.08191925102399064
0.027889111556446335,0.020786113107413455,0.099696265856709
0.01756898165996584,-0.00404290873807342,0.13481972851790425
0.00021958717610887156,0.0029725861499504133,0.12136878385032004
0.0044381129801106915,0.004053017855186661,0.1128513324834578
-0.004549886252843697,0.005636114911080717,0.10212893553223389
-0.007490031253367899,0.003979069006867926,0.10871004634924458
0.0012439156300702529,0.009873445341479393,0.11874546773023935
-0.0005957216355267459,0.009518599562363133,0.11021537721092524
-0.003788698852565429,0.0246047650857271,0.05496646988020865
0.008013172338090055,0.011510712122046613,0.04488820617852868
-0.009055204014837424,-0.0027448397013614405,0.028594077345563573
-0.004516269452606445,0.002410826804010727,0.01571174772373964
-0.013084315109397886,-0.015382948759614361,0.01866068926870279
0.014638362231945163,0.012178036426338995,0.04669564248300454
0.011758968245366945,0.0097890751757707,0.0263302550571681
0.017874606106704292,0.014622258326563707,0.03571231134943893
-0.007132745290210183,-0.013043948906689742,-0.017034122149749323
0.01244082351645927,0.009440175631174528,0.01244082351645927
-0.00021863897239678625,-0.0022365262928212776,0.0018074268813669846
0.0034107162504126115,-0.007508978126020217,-0.0019151846785225408
-0.022519165247018684,-0.0031489223084857163,0.0008176169192194794
-0.007926731294521011,0.0005401609679684239,0.010418939559240654
-0.01094208700293559,0.004118348325566378,0.013676148796498906
0.023416506717850345,0.013908508095186364,0.03885548875528846
0.00859069160504574,0.010018512468692167,0.02164454480365703
0.025531682248100245,0.03258835186612362,0.029754062362758103
0.03114035087719302,0.028040448209893546,0.03051887567804516
0.022711181308207543,0.033006931455605674,0.01711623876069763
0.017491766992387893,0.0033539182282793624,0.015572798792973306
0.023529411764705802,0.01579990359380852,0.02574364521362894
0.012431679348408494,0.008486789431545254,0.02323314378554017
0.021078167115902945,0.038716753496024145,0.025167785234899362
-0.00031986352489605645,0.019573727707699124,0.029198682766191118
0.001063377286261105,0.02935870100049207,0.027056513200960114
0.008999893492384694,0.03876096491228066,0.030960931548590694
0.008807767814506269,0.03551004847230533,0.03224930778000976
0.004850785616366213,0.02888301031150474,0.02943877275428087
-0.006245368900179987,0.013275769023205502,0.017448791589899204
0.007813737395068845,0.022880720180044913,0.037107464957079124
0.016958191126279748,0.02803234501347703,0.03833169988021339
-0.0032398555343106736,0.0004797952873439332,0.03308378289111522
5.2778804032252624e-05,0.007443641003828037,0.035692812243782464
-0.0006837427023615182,0.011822345297688778,0.04521949609417977
-0.01794521985517901,-0.0069507083355441306,-0.003620102214650803
-0.004633574776310208,-0.014605082779711115,0.0009640619141983739
-0.04866677143904863,-0.038848311633322766,-0.03069121964238057
-0.03938122705820656,-0.03283881526846523,0.0046065259117082724
-0.02792135130814718,-0.027143771331058036,-0.008101348412353092
-0.03314333966645557,-0.026981091990652288,0.0015854791974194524
-0.028052631578947433,-0.025333825935504362,0.012445175438596391
-0.025646505663603242,-0.04086677536422438,-0.006807908066009476
-0.05361442559794522,-0.0719382936299717,-0.04513307779517349
-0.024008810572687143,-0.05602897315722189,-0.04349703184025905
-0.03258911512637152,-0.07161192309707155,-0.050369735290965625
-0.01924025653675393,-0.0617724174095438,-0.03547169811320761
-0.0036026200873362263,-0.027335216070762485,-0.026868536091267832
-0.004007147885417127,-0.0292906903103229,-0.02206507868991921
0.015354244351831447,-0.025473684210526332,-0.01395249760357868
0.050262904958443974,-0.007480230818551003,-0.014378946251392837
0.056364251861882084,0.0018192519663973645,-0.012812401138880138
0.0659067825301885,0.04019823788546262,-0.00021170742034504097
0.04286832103733521,0.018559965063595207,-0.014888337468982594
0.024761696066615595,0.02537959765389462,-0.002453071672354991
0.026205621703909058,0.030294759825327575,0.002496282132993408
0.025437459494491294,0.028158336492121176,0.002111152161292055
0.01485788113695101,0.03377933757402937,-0.008467890390785174
0.018907226406024786,0.07858879402951323,0.0009969566586210394
0.022392800423504444,0.08965244865718791,0.028600340860673226
0.03805134251567605,0.09293533461234622,0.01466813348001473
0.05752165080722758,0.10563380281690145,0.03733613004719457
0.04402649006622518,0.07954420948833138,0.05003463526402736
0.054352978353610325,0.08840319686837378,0.05652311589613684
0.05845533630384034,0.07766256210844673,0.050210526315789435
0.04911673743251022,0.077411714039621,0.06935242573199396
0.03593434474188369,0.06857875340490308,0.07052276740328539
0.03412669729980904,0.06034939121228166,0.10297356828193842
-0.0015670811849155914,0.058524036657913,0.07817020579725964
0.0007611894854359367,0.05426066502726401,0.08101737652798334
-0.02637494380338679,0.032635761589403955,0.06391921397379917
-0.024857171494437103,0.02480644651603733,0.05366329127633089
-0.02088538023383621,0.03946530872056014,0.07457775828032459
-0.010546308791922754,0.03768936415578968,0.1192401198620456
-0.025661507738392483,0.010511054729974635,0.1011058451816745
-0.014024606349045527,0.005421033610408443,0.09886017379528275
-0.010597839866132566,-0.013648771610554992,0.09054325955734417
-0.008721974244523055,-0.019537196792854938,0.058452941820970834
-0.008788159111933435,-0.036565263000149825,0.048605447724677855
-0.02832210655235768,-0.04575523704520395,0.028353856124432922
-0.04258436047686404,-0.05301289097631651,0.02029500430663227
-0.02228940356630454,-0.04628380066976554,0.019120867382364005
-0.0065728663859505035,-0.034148776834747895,0.024139756484912664
0.007790077900778914,-0.004404840261252618,0.05386140736373859
0.020961647947828697,0.0002535368389026061,0.05452795894365438
0.02333177788147457,0.012621209789133487,0.04566887417218545
0.03860091381755157,0.016342892383595323,0.041554747985463665
0.01867778188149629,-0.014747907736272783,0.024135370252493012
0.008856978145799475,-0.02758132956152762,0.009068511820516798
0.01152693063165507,0.0027157204345152753,0.01325532025060841
-0.0339707078925955,-0.024545547910033896,-0.019257576539831636
-0.04785562202169724,-0.03741287412874134,-0.05055100596501871
-0.04463697623752344,-0.02406707727343308,-0.04313407084136811
-0.04667273462783167,-0.022502203556799934,-0.05824466756581246
-0.007458434764593141,0.00640722651121264,-0.03964117470181416
0.0361558441558442,0.05239276104046856,-0.003397621664834508
0.00434360468087278,0.030029872648184002,-0.01764382466136853
0.03369130343230157,0.01499017884834077,-0.01967049425861207
0.045149611329996904,-0.0017290480065092302,-0.006126272087489138
0.03155494272380138,-0.013940991584710535,-0.013690989300745485
0.023603670503368104,-0.022242488726756927,-0.009902006054076276
-0.0008349423367948473,-0.031806229773462744,-0.015983143180183026
-0.03238744610448214,-0.0003625628010565763,-0.015105123494590773
-0.014857026559478924,0.005818181818181842,-0.02192362093352194
-0.01894479527398669,-0.01558587561960249,-0.012912482065997183
-0.005705552725420298,0.027479469361970935,0.002259422820170472
0.00709475091254946,0.04296667021616438,0.003946289462894536
0.012902891491346302,0.03664616037335594,0.011697117126442683
0.037969394683240246,0.05415583726727846,0.030435008036501295
0.01699481865284975,0.024265511663100797,0.030828212803949397
0.015494267121165169,-0.014238443798255306,0.03740832585870313
0.03514327242524923,0.014602625419761905,0.045071013049630494
0.01306486320319696,0.006976981055204604,0.022071746097384378
0.0034202868957068557,0.0013245033112582317,-0.00040683482506094433
-0.004297334629354906,0.000616934861960848,-0.013332657406468598
-0.017007145013585565,0.01233288423670859,-0.010183918528651725
-0.0012227430201753062,0.023867968872408173,-0.00869741100323624
-0.004729935916997288,0.01393782383419688,0.013570207696690343
-0.011233137756381371,0.01833488276004536,0.024259740259740196
-0.006979214079805773,0.0192587209302326,0.0033726812816188695
0.01170126170126176,0.018854390818731463,0.04685196883554435
0.017931459692750396,0.011383939966307715,0.05483974017676505
0.02503071253071246,0.024453880390852823,0.06199618158676282
0.025300958987961683,0.011371641340444756,0.0661433193656182
0.030251929071490706,0.027155084573058957,0.052079528257579805
0.02617030988487105,0.029040789339843394,0.014388849894715755
0.027349121466768548,0.011584173311268252,0.02635595807469221
0.025143316906366286,0.03100187123855775,0.03819515176206967
0.025388653341409252,0.033526658526658544,0.03489556800815076
0.023370786516853967,0.05292092688691369,0.05357051051359836
0.02044776119402992,0.04990786240786241,0.06285625453414874
0.020782699270869488,0.04978575800856978,0.07484201180341575
0.016161716008500873,0.050641320455822966,0.06528497409326423
0.009220701963117259,0.03251001673682622,0.0514409668422684
0.00201118414598252,0.0403361344537816,0.06037167774086392
-0.0006399212404626899,0.020919239666096733,0.04016805000512349
-0.011808910359635074,0.022158287906319334,0.03379447649190875
-0.0074106576958705575,0.01667915106117355,0.04154090141709728
-0.012536443148688107,0.01104477611940298,0.022542014692563096
-0.00500972762645915,0.014681811418084318,0.04223558182188706
0.003880538363296945,0.010082538427321663,0.03941613264164378
-0.00607039702354731,0.006494150307356743,0.018153552981294844
0.00714215348241547,0.0029922495830471164,0.03408688615789212
0.0003456619426202242,-0.0028058085158749356,0.03062678062678068
0.002259442998182661,-0.004294149221685431,0.04839952730822595
0.03410097431355185,0.024572180781044277,0.07570638820638816
0.020970816835313197,0.014868804664723042,0.06539481738420742
0.019278759113372793,0.013180933852140118,0.06448975420307632
0.035117962862631115,0.032321446114549485,0.06588223360551813
0.019122609673790758,0.020120428844176752,0.061268143621084806
0.020831276532727806,0.01861885528519358,0.03992758724730965
0.018475863758882535,0.026220927361611784,0.048960226125580396
-0.0131334760885083,0.01866496389803027,0.03565543071161042
-0.003973953844680707,0.02366893022340322,0.03497512437810946
-0.0015361720512697095,0.01671799384073919,0.03164525569168194
-0.02188808526836693,0.005822772422566902,0.015964019176592643
-0.012429215855648351,0.0135940501403733,0.02017648225262737
0.0043520309477755184,0.01579693842617494,0.0188364563916412
0.008324511596574047,0.034406160529173654,0.0315038149150874
0.006557693234968001,0.023033570203381468,0.01864051139413455
0.009998557900302902,-0.00019034023316674776,0.02437716347325825
0.011154382422231804,0.006942449487695052,0.021914480077745338
0.02169682817668811,0.008208919398972723,0.021498054474708247
0.01496671364011863,-0.006138180433955044,0.02598487081245698
0.004670197400096288,0.001391688261829312,0.021540118470651477
-0.021760916249105235,-0.008752417794970997,0.009703477489902466
-0.02069461077844308,-0.01631219324415353,0.009481013283294731
-0.055923087906334774,-0.043541154346882556,-0.02568888452281541
-0.05667823688840291,-0.04633947026871132,-0.02376734573368769
-0.04475764212932104,-0.03543439588441754,-0.019308794055824356
-0.05103652989898021,-0.03575598365440744,-0.03014141018740518
-0.04686826089040112,-0.033529326011953964,-0.02039107521056009
-0.03741645933948005,-0.04997592681752526,-0.03496845503007779
-0.0205938463043585,-0.04452397995705088,-0.01164971862967723
0.004133897963299018,-0.04584431137724548,-0.02386669933839747
0.005746257371843414,-0.0503545761743849,-0.050535331905781605
0.006928521583092345,-0.03946555085350203,-0.03279708895911147
0.016951717874981006,-0.04023426340348546,-0.032355623829868986
0.016994318467494718,-0.031598602001244765,-0.03754282451465544
0.032688019460774466,-0.023482053002348097,-0.022123044438045806
0.02202577165118368,-0.0017561832284502348,-0.010493230174081315
0.024600863540516143,-0.0017120774837352361,-0.017996342989125114
0.0278153661103594,0.03387779794313369,-0.011138434832923353
0.012573634968566014,0.03104995211452203,-0.016728356487045088
0.023118519620975327,0.027963313727444847,-0.008461945285831142
0.006229297473673757,0.02684021996872001,-0.009875462152169688
0.007214015802129847,0.03192719593745298,-0.0026726274357353756
0.003958363876264488,0.04115142915061831,-0.010881078478574824
0.008722069776558218,0.028169014084507116,-0.01760916249105224
0.0005363760483712952,0.030173712220102372,-0.017053892215568873
-0.004986555854314398,0.020047110710168896,-0.03131692922754753
-0.012655772680987176,0.007969902480075312,-0.03181018496505158
0.0021127106569056495,0.011856923153247085,-0.028854394819541006
-0.006431494835314858,0.008157413358382248,-0.023698951500933676
-0.019373052959501508,-0.011336310546204063,-0.03455216370345512
-0.016516078888565072,-0.010604505693202305,-0.012342065466608132
-0.018373215068960527,-0.013034104272834305,-0.014723866360123364
-0.018916130300201416,-0.026331187829139874,0.006654567453115512
-0.019202435910028466,-0.02366169640674653,0.00665356116739766
-0.016866052167091576,-0.027687533336565873,-0.000498454790150505
-0.010249117300902192,-0.00835257701567331,0.018263457948640354
0.008438399682319015,-0.010134476710193005,0.02146915380361009
0.001728736540551192,-0.012801791277258546,0.027822825866612656
-0.008638665475126506,-0.03002040221509767,-0.002697033263410209
-0.007011217948717977,-0.03367610507334664,-0.004518525956421356
0.0041560262380450855,-0.014690708986390258,0.005061895454317601
-0.015509674845402022,-0.030497986445339395,-0.022771149943072097
-0.016746767081207075,-0.02701510100019621,-0.015478493823485661
-0.018212246505217508,-0.02187132208709288,-0.013892322143669363
-0.029929490656279242,-0.023428968529732943,-0.034499681012906715
-0.0426181891025642,-0.05576410155092374,-0.06577725651175297
-0.035858382085939146,-0.05088869029887797,-0.06325950607604873
-0.04333300089757653,-0.03921274038461545,-0.06451141018139271
-0.031102781014132955,-0.04226127885433878,-0.06492300171107308
-0.06061980347694634,-0.07031717534410543,-0.09605779954419824
-0.04978441792840673,-0.06094237724817921,-0.06878592836436889
-0.05443732845379693,-0.0843177790903721,-0.09359773923211853
-0.03985981063974461,-0.09496573147280701,-0.1065517912772585
-0.07626719673588944,-0.11563501602564104,-0.1421840085494997
-0.07438102684388836,-0.10439782126286054,-0.13455821433793064
-0.056307837088931924,-0.09993018849107406,-0.11315285215938682
-0.024621821692951268,-0.07892204042348404,-0.10701306354974949
-0.012029757821980696,-0.05643738977072305,-0.08192782898607574
0.027683706928989978,-0.04151208262308233,-0.06247548058061976
0.06804685371833277,-0.003557995323777661,-0.02690360369304088
0.09694773203465658,0.013286603546581684,-0.0432184135137805
0.09753350602545327,0.019511429617617922,-0.03237017178035936
0.08504155124653737,0.020849622100599426,-0.019180689102564166
0.0592311499752515,0.00695352120039726,-0.035601622352411065
0.04347129506008003,0.048117154811715475,-0.025583482944344822
0.004550685218119074,0.013296048119031342,-0.048456621909527826
0.040093858396245734,0.09605977530505835,0.003642449301043557
0.051520313871250785,0.10972487060746383,0.004339036536659906
0.028065674704976906,0.1346622119032788,0.0034555288461538347
0.01337758488639267,0.11763712129744332,0.0009582408714948442
0.06568016614745589,0.1371191135734072,0.023486586217213563
0.0547622703311327,0.13342132761370504,0.04396940377893727
0.07732361364228062,0.10493991989319096,0.04257999496094743
0.011623344776851419,0.07893085050737526,0.034142183896520614
0.007707791251411425,0.04703121811875127,0.04330588594083552
0.017617407795578185,0.05260440865210881,0.06658994612125343
0.03406056330931622,0.05300153925089781,0.07354710467123504
-0.006577344701583407,0.041102884860862964,0.06280948657805584
-0.003687709253238832,0.06609553478712367,0.07350865268991479
0.007733204446592529,0.06709657607861208,0.11844222722883818
0.02128278469966542,0.09690184847695904,0.11148630823616311
0.03605183669492354,0.0429622363903874,0.14314895446970916
0.05615497793035796,0.05724385094997298,0.17324979569599555
0.05038249768552358,0.07585965962968502,0.22073730109292705
0.056400196174595386,0.08530256461933797,0.21297443405788935
0.05659182778941205,0.05700365408038972,0.2019390581717451
0.04949640287769781,0.061769129991751125,0.20343177693449913
0.04371973796639138,0.0626872885451909,0.17420560747663555
0.030424151227311198,0.0623454695302273,0.14619730097290506
0.036730903180868336,0.08769365682548963,0.13884921444603143
0.03776035626478645,0.0971554683668465,0.15487068297971193
0.0345868152274837,0.08585489450860014,0.1434068753206772
0.02714911269877859,0.09288867091711622,0.137809548123564
0.03139566767205925,0.09915745385477029,0.17180685358255454
0.004457179242279482,0.059232613908872876,0.1303034955729567
0.015835348879660472,0.05667900882939333,0.15907315803176247
-0.015408044432500214,0.03366876704598889,0.07807748896517895
-0.025032408028250835,0.012816345484095748,0.07079385340468367
-0.02777653129908009,0.005056362202532836,0.08129959574786641
-0.0026027643152037898,0.03184772516248832,0.11986698241547837
0.005848730559617144,0.04637013136667436,0.10601705237515222
0.0319221190853521,0.04149529293483234,0.10582755106992092
0.031446540880503145,0.04425342247691813,0.10971483808603184
0.051178236739150215,0.05448820334960981,0.12023076550152703
0.059648801063683414,0.03520558989518953,0.12598655363928682
0.06890981260961879,0.03522417415403869,0.13580186365865618
0.04589219832628461,0.04312317702490471,0.13268040734785372
0.020483679133077862,0.03957996768982226,0.13614516920058847
0.014260640631856078,0.024192476405689254,0.1257487946232893
-0.0008710801393727729,0.03871405931627807,0.10023980815347724
-0.032847189163456976,0.003953279424977518,0.060856356213804204
-0.03543613707165108,0.0141479392230007,0.048293049938869605
-0.03311887387192891,0.02663793498693308,0.03979568144880424
-0.011098683644498031,0.06101726206960214,0.06638214964976576
-0.02024518691185357,0.021191397462431424,0.05371402042711232
-0.02119835604585769,-0.0033478701378793487,0.04286702005070298
-0.010505666957279846,-0.003992979376919686,0.03733662370898463
0.015616609987470956,-0.011454703832752594,0.03229180879610676
0.014668281523348054,-0.021075864456658176,0.03226395290466843
0.028849589138978244,-0.0032017999307719326,0.03189106870912839
-0.007482164607621363,-0.014810656764109014,0.019891824236735006
0.004670220734017722,-0.01905704207175431,0.02324433475431908
0.022541436464088373,-0.0013381680048346813,0.03818883503859267
0.0036124939424643956,-0.014449491672074426,0.009393415747263966
0.00374498832444814,-0.006887532693984361,0.031559882273035994
-0.0010610079575595964,0.011097189905137007,0.01509433962264157
-0.03750325549092797,-0.005337998474857568,0.008734419070148375
-0.010738078541374424,0.007993926402286623,0.03484480308101414
-0.022584747620927097,-0.030450669914738125,0.028708575648481487
-0.03293710827750164,-0.014275014319073045,0.006613875641141001
-0.003994556867565061,0.0028729281767956054,-0.0004845601515351096
-0.0016240891932227397,0.0020265209921140996,-0.001974550241333993
0.0195167286245353,0.014979953297792685,0.0033536585365854105
0.04112925047352757,0.020601237842617266,-0.0009088155104512898
0.004917814895219464,-0.015452730271724986,-0.018605053651782673
0.024048815506102,0.0003506311360449356,-0.01446521870547085
0.02006883296831006,0.0008332236986361344,-0.018239697152198267
0.027016306743058594,0.007261724659606686,0.0059138392471726
0.04097603868982204,0.03933102146525617,0.024313216526065346
0.023787819594565218,0.03524712492318498,0.028116826503923227
0.023304167027635776,0.04549477783678527,0.057096831931269104
0.038268230314787086,0.062054658609181884,0.056385412461310694
0.036803364879074554,0.04842497009436878,0.05680600214362272
0.03623696433266151,0.06106424982053129,0.02875413259091706
0.016049435694974936,0.05828453940016994,0.04317751244657889
-0.004645858850361206,0.03865138827677383,0.04163535911602204
-4.239983040063984e-05,0.03688722796218956,0.038988501696109935
-0.003640365729766397,0.021747623388462,0.037053355068951827
0.009341825902335408,0.02962834618383425,0.050839964633068085
-0.008874239350912756,0.034035799312229956,0.01805712301415052
-0.004862784895767287,0.03110760602874165,0.03146914446002808
-0.005575030620433423,0.03167995793532552,0.03253957812568516
-0.01569991937879233,-0.004548770544565087,0.0026799221958072384
-0.015052578018995977,-0.01892131604510714,0.01966551073262802
-0.032755544226357416,-0.03468306126775496,-0.0006584145377930194
-0.05267143458140506,-0.04681679647815781,-0.0034519383961763195
-0.02063613882493393,-0.02462845010615716,0.03589789843961387
-0.031571343588000365,-0.03689148073022308,0.009747020513047665
-0.022807390104055962,-0.027104740158146207,0.032304379038047455
-0.020304349700392327,-0.040165561515394764,0.0157779466321012
-0.011408153601102096,-0.025586625365977857,0.012075804319083212
-0.006588483331137172,-0.04100237449118053,-0.005627610463838212
0.017230659916511213,-0.026850199677117822,-0.005686504319138787
-0.014235959947757866,-0.04741270509045007,-0.01918911894654772
-0.010618226492913815,-0.038586168670589165,-0.005863680451459237
-0.03311891515994438,-0.05472932778108267,-0.025324220119172805
-0.02622546862624298,-0.06009768528349959,-0.030321619489965767
-0.029089008883469686,-0.038841229469327894,-0.04321332017336821
-0.007428040854224603,-0.033578716259847534,-0.05186467880221312
-0.015367152711080112,-0.009355646330214766,-0.04371422514309944
-0.008700260566179388,-0.0031974420463629044,-0.04986454453098544
-0.008470442148210548,-0.026643447975620273,-0.05061571125265388
0.007911534657915989,-0.016190601553244692,-0.05248478701825553
0.016267510167193827,-0.022513908205841475,-0.049008414732123994
0.014217796914244652,-0.004972278447593045,-0.04493812560712934
0.017149984409105055,-0.005661034662950632,-0.031102813255823755
0.017557861133280162,0.01472343812176687,-0.026882632293080067
0.022854851643945448,0.002313804243429674,-0.024598521539638
0.01959030324715983,0.00675705516053527,-0.040976020193521166
0.013602711622513653,0.007893919907756446,-0.030996844887865534
0.008225878168074675,0.019284365728670285,-0.03650038242542705
0.0021226727988326102,0.023994577496610943,-0.03754512635379051
-0.002890426556888835,0.021169716541083596,-0.01849377074621715
-0.010675381263616508,0.011403625996703649,-0.022558009384820617
-0.013894333376889226,0.003813070852177058,-0.005578249220362726
-0.009124407790840552,0.006326294217232413,0.003108624211741667
-0.01742420909050912,-0.0012076214330441462,-0.027818894209838862
-0.026019845644983487,-0.015029881366515051,-0.03097714009916196
-0.02581527734874905,-0.018408181413961826,-0.04050764951321289
-0.024200632466619902,-0.017512050590368408,-0.022397254246237806
-0.024179696102180175,-0.02969256372076728,-0.03518550775126278
-0.008171378091872766,-0.021568627450980343,-0.007162753680859425
-0.003763060031875307,-0.019861492225271143,-0.01759364358683315
-0.007747078052930858,-0.027987366204597276,-0.021419423221304572
0.0054335521847408514,-0.022968275619307425,-0.015255665439709068
0.018798695415836227,-0.008114663726571129,0.011013215859030786
0.030967277310168,0.010767397731785876,0.03502033438770899
0.026042606968766972,-0.0015372452565003264,0.019599928238249034
-0.00026720106880428535,-0.011275049548557596,0.0
0.001644225214415876,-0.00441696113074205,-0.0006207324643078228
0.0325841682462316,0.012927217991854152,0.019335293593513336
0.04345868047736986,0.03757108951681513,0.036318096430807655
0.026766262060379752,0.04564183835182256,0.02992596556952996
0.004103907443789556,0.04181011052726952,0.02263228101378392
0.007038226366955501,0.03042715038033947,0.012382257993189809
0.021114526259521496,0.034618162123126864,0.003897696417622783
0.016814551907719574,0.020663549320863887,-0.0013507625272331254
-0.009090909090909146,0.007510109763142682,-0.012500544448800055
-0.011048769961156679,0.03411860276198201,0.005176346727495957
-0.004806651366214929,0.03499211889214133,0.011220134641615623
-0.00478281664420202,0.017695967275799165,0.009437706725468517
0.0004368147468658293,-8.73171796551418e-05,0.01067914037332857
-0.004275182131483618,0.004046980160999373,0.002503513703443399
0.0034905536890789796,0.024499977727292975,0.012948689715921592
0.009041990119971822,0.014951197870452548,0.010468197879858678
-0.002225713537575242,-0.0007430069930070626,0.012174605985479016
-0.007484118005395522,-0.01553733275787654,0.021450002239039864
0.0015728078989908413,-0.007274931797514428,0.03803486529318545
0.012443784657031805,0.00821774859776506,0.05037144410219245
0.025147864184008804,0.022102826191412232,0.053202502588108304
0.01417452932736202,0.017536971600575886,0.05276223144972016
0.009135813262228454,0.007286530825952336,0.028100645735916287
0.014739972881949021,0.023288637967537055,0.03097364795805003
0.022972380534853176,0.01832940560356122,0.053073382074194375
0.027786259541984753,0.025237142111217525,0.061112362080612444
0.01173020527859237,0.024946480842326046,0.04308390022675736
0.010043164237787915,0.03191721608522902,0.03182711198428287
0.014276527331189764,0.03649507119386643,0.040689746183961636
0.022004678159923692,0.025870690030001253,0.05100449908681896
0.014999999999999956,0.029330768894522793,0.044720496894409864
0.011485386131824834,0.03232296723964491,0.03155594405594405
-0.02402172990408283,0.008154318281455563,-0.00750971083297359
-0.02199488491048592,0.0008287895310795975,-0.006452171653747928
-0.014132182449014147,0.004830084526479233,0.013087525544588856
-0.020120043959759994,-0.009273900594042548,0.012623946184423127
-0.0243282190387387,-0.013076098606645279,0.004231557824019539
-0.022762018005775375,-0.0032054058736897214,0.004057768663554286
-0.04160664350478782,-0.02500000000000005,-0.0022935779816514214
-0.020351365454861745,-0.03454187023227909,-0.01684559657851089
0.001569037656903825,-0.024700789406671732,-8.702462796963628e-05
0.0002575107296137437,-0.006564364876385303,0.018218358163309956
0.014666551634889164,-0.004738935432004758,0.027027027027027018
0.016333622936576975,-0.011074477977851063,0.025016429353778787
-0.028159221275856152,-0.052131897940154326,-0.027609896082438464
-0.011494252873563194,-0.05045014438593509,-0.02259911701709147
-0.015891335227272783,-0.060672824336920686,-0.0303109828106548
-0.05822454308094005,-0.05887980518351026,-0.05120561157387114
-0.07242770102119624,-0.05779288702928866,-0.05701199563794981
-0.10186208655726557,-0.09330472103004296,-0.08892530619285839
-0.11737049068216793,-0.10922267276335085,-0.11748365314757045
-0.0843319620819173,-0.11042571676802776,-0.12205787781350481
-0.043649373881931984,-0.07074569789674953,-0.07372433509486273
-0.0205683355886333,-0.040053050397877994,-0.06405172413793109
0.0028647999260697004,-0.036576704545454586,-0.06985514699580017
0.0026829493940234254,-0.056744995648389994,-0.08004413886766834
0.02120609675281652,-0.07431562687719898,-0.08039215686274503
0.03186440677966108,-0.09412464926451826,-0.09841753406109838
0.04101963082332262,-0.08881860147033681,-0.0989094598021811
-0.015993265993266066,-0.05911285995349669,-0.10816309231160469
-0.04282951091461722,-0.07048300536672626,-0.11737727195515538
-0.017600442314780654,-0.03824988723500221,-0.09660198288280658
-0.03663037460786122,-0.035116902319563784,-0.09192903113584977
-0.03559840548808754,-0.037561291516329004,-0.09318340306834029
-0.028346161066266286,-0.01997538578055476,-0.11141630901287557
-0.017731494511680275,0.014043583535108987,-0.09671296695712185
-0.009029559927763412,0.018263502295146054,-0.09417897480451771
0.006254811393379441,-0.021979049756827615,-0.09116982443942298
-0.0385517306068849,-0.055908630376715424,-0.09372236958443851
-0.04348242505507128,-0.07970880943604858,-0.11337002840909087
-0.06555801211189087,-0.10306329581103527,-0.15395996518711932
-0.10877125193199373,-0.14471122647631407,-0.20827254784175744
-0.13037249283667626,-0.1453914022902197,-0.22583113680809458
-0.10704009207749866,-0.126559714795009,-0.2041374593947684
-0.08970067897102416,-0.0952380952380952,-0.14872115900554458
-0.06234146341463415,-0.07515396458814474,-0.14033989266547403
-0.04585961750275356,-0.10618140887346396,-0.14036986919260253
-0.06028186400576072,-0.125083804233311,-0.15580815081785418
0.013765445480164708,-0.10093242333942132,-0.1347025626792488
0.032180120812740326,-0.09215610510046361,-0.11029063712960326
0.0022556390977444465,-0.10878701050620822,-0.09627118644067795
0.012711419266729782,-0.07538845194705543,-0.05850180681707193
-0.00010404744563526289,-0.0809983742947308,-0.10119715675271237
0.014167278833035936,-0.05717073170731707,-0.10988302477664173
0.05878489326765194,-0.03154100330429564,-0.10873571691854034
0.0067358066930396174,-0.031375372904022196,-0.1312050193762687
0.0031921685464992248,0.021894645566876175,-0.12598498192268473
0.01886185832172319,0.04415156507413505,-0.10765909517552105
-0.020124481327800953,0.014607948442534904,-0.11380054414110151
-0.030280957336108187,-0.021010610358230906,-0.11424769508601841
-0.03300910596026488,-0.027676620538965732,-0.10075057736720552
-0.05272952853598009,-0.0385140098646238,-0.1406059469092955
-0.04481733220050976,-0.01543513957307057,-0.1385882578297098
-0.06544336020364873,-0.05794932107345239,-0.15303277900605597
-0.07078994425160398,-0.060012768674186,-0.1466383307573415
-0.10533559178488237,-0.09430929160861641,-0.192836676217765
-0.07769073934971558,-0.10840248962655603,-0.17561864569345867
-0.06163723916532911,-0.08751300728407906,-0.1614229702591565
-0.01626282471076194,-0.06736341059602655,-0.12068292682926833
0.03024238381142983,-0.04197684036393716,-0.07219385200760997
0.07354443309499493,0.004566694987255807,-0.026951959674930467
0.057278695947475686,-0.009333899024183235,0.012356384131801436
0.11596260797538749,-0.007994109603449994,0.03580450302031856
0.11425247236765552,0.01386830404403983,0.028678839957035466
0.09442353746151216,0.029831526987874248,0.008194138039710065
0.07999556196604914,0.041626538255751744,0.012797835813130829
0.04878048780487816,0.06068543986029253,0.0198341903662504
0.02886140183951781,0.08205470313542357,0.06535303776683087
0.0627408993576017,0.12654636250141874,0.061263765636694154
0.06817940833421686,0.1403667647724699,0.07193019791444978
0.05648950610838479,0.19725476274997042,0.08434251419997861
0.05637178284880688,0.17952297847585796,0.05165975103734429
0.033901787548797996,0.1476793248945148,0.0472424557752342
0.06626877958427657,0.14967269499611682,0.07222682119205302
0.06853678586107688,0.122274983811785,0.07516542597187754
0.047048156357042126,0.09874193889417489,0.10375955819881065
0.02173913043478273,0.10203426124197003,0.09174798472634711
0.031132634908084517,0.10624536104336757,0.09740191437887878
0.02860524758334983,0.0888587240263131,0.10395934787211526
0.03596979332273455,0.0863811607794103,0.11878956969631943
0.003667245705462222,0.06841997123484689,0.11289459604066342
0.001923261852101191,0.07213418398847489,0.1371971185330713
-0.0006735302607525006,0.06720098643649822,0.15476984656437628
0.0027202953463517626,0.0397944791456779,0.17137668823062074
-0.012748011118566072,0.022433988485209503,0.1659497396422911
-0.024453394706559235,0.005435856888713156,0.2037628682996095
-0.030117015154421643,-0.002564608404024373,0.17649796393251893
-0.022980769230769235,0.009638314785373598,0.1587410195005132
-0.04779729340627703,-0.04255935147654903,0.10074337068678574
-0.029173887926054316,-0.030387537263198355,0.08817181092164907
-0.01220811936827818,-0.0190512845184259,0.07780949360397504
-0.012524271844660255,-0.011852715437676216,0.08897216274089922
0.02457485500835545,-0.000958497076583862,0.10518502809882305
0.022250791139240507,-0.008726505561948567,0.07935679231492125
0.02962306859561072,0.003452906196048335,0.09013233302073571
0.06309847797601054,0.014134615384615374,0.08352167659749327
0.04621640384806106,0.012477205106056216,0.0855114221033133
0.04423737126042168,0.025033699210475584,0.09391697492807236
0.04424343722347852,0.02906695087685302,0.0700181341930283
0.014487191787393177,0.026601941747572765,0.04963271788763153
0.03279481474315566,0.04944460827681118,0.05514923898003556
0.006882049321353459,0.04173259493670885,0.03906095876898805
-0.011093201858348362,0.02647377226650918,0.036367249602543686
0.004455398615982547,0.0680374962201391,0.022582513028372796
-0.013808003005823773,0.04125756223346223,0.009616309260505818
-0.032576970153469484,0.007846983815595853,-0.011353795824112448
-0.03962549650085113,-0.0015730999901680917,-0.013407169921305835
-0.055076807793181054,-0.03214045860117057,-0.03306814914214514
-0.06274919308904499,-0.044887298055528685,-0.05322209436133484
-0.06299137104506225,-0.06585738864461863,-0.06263188183387686
-0.06993204983012455,-0.06561107423912015,-0.05240384615384618
-0.04543289837127342,-0.04995734192814481,-0.03810346482387944
-0.04389294403892949,-0.0772120984407289,-0.05411130367802816
-0.051797144263909314,-0.09339986818566978,-0.06704776668927417
-0.03618160190325131,-0.08048042368072622,-0.05601941747572812
0.0003038590094196408,-0.07493443237167478,-0.029194927749926262
0.025683004195231666,-0.04841465730017096,-0.008702531645569715
0.018670725520040624,-0.0374880153403643,-0.012006692254699329
-0.0031929754540011295,-0.05719139297848234,0.006954944058058785
0.02381921824104238,-0.042004000380988636,-0.002479420807299415
0.03614082459237709,-0.02900243309002437,-0.02138303089749884
0.016352977476087514,-0.0268833087149188,-0.028414118572411766
-0.008100445524503962,-0.02894528152260113,-0.06015542550129531
-0.019253790901835523,-0.004254026131874827,-0.04895037244848604
-0.03904771391572868,-0.012892663460554642,-0.07790097495698724
-0.0465465465465466,-0.033485540334855374,-0.09689959230112827
-0.06054881686219928,-0.05717421672320898,-0.1042752867570386
-0.05332264207677652,-0.03857899022801295,-0.1128123238775126
-0.03744181339809744,-0.012150794475023385,-0.10441578005837482
-0.050122498979175145,-0.04299084644657006,-0.12001134859088328
-0.048214830637778545,-0.05255164034021883,-0.1235481453727989
-0.04737224007463453,-0.08320031923383868,-0.12758686159103852
-0.03832020997375334,-0.08755852176511611,-0.12176414189837012
-0.010265636575298961,-0.06386386386386396,-0.11740279350698375
-0.026786659608258347,-0.0861006164247365,-0.12448804648061715
-0.02060555088309512,-0.06625238047509271,-0.09333333333333337
-0.020849005910800623,-0.07802064359441403,-0.10280649926144754
-0.010580314203270226,-0.054920375663536095,-0.08227597145122915
0.009793253536452573,-0.05604719764011804,-0.06006279752861346
0.005349344978166038,-0.04540271587021867,-0.0577100173948634
0.01710863986313097,-0.0013648293963254116,-0.034804667681379936
0.03992602262837251,0.011641443538998927,-0.04619836360007978
-0.0012881064834691966,-0.01492853361566963,-0.052931596091205096
0.043902974426517395,-0.00010513036164849786,-0.012254647419254406
0.03370058327932604,0.02847931219774321,-0.015735883986423956
0.0007543103448276659,-0.00748103024473644,-0.05963953017415958
-0.026495819307199454,-0.024483133841131665,-0.1056464485235434
-0.0434188393608075,-0.006659388646288204,-0.09363482418567592
-0.04446071764828957,-0.02331052181351575,-0.0856856856856857
-0.04052020636285479,-0.02882941688424723,-0.11244780274408434
-0.03501209126274838,-0.014813224559896903,-0.08008419364538434
-0.021734587251828613,0.027549116452639723,-0.05262092693786672
0.022935285883493004,0.026139554979477227,-0.03021641486320941
0.056218627997769006,0.020366379310344834,-0.03682229681619372
0.05099461479283439,0.03844065588011719,-0.008707370166891297
0.0589008101598423,0.016820857863750992,0.015433070866141721
0.06273104066315681,-0.0075321686368866915,0.004021589586199701
0.04249291784702556,0.028374892519346523,0.013022763366860814
0.03621021149327067,0.0199768688886553,0.019869638351555936
0.03326315789473681,0.02570532915360495,0.054916711445459426
0.019431830182701483,0.03940992785614296,0.03163407074917183
0.04130502980236331,0.11076408254322356,0.083569096844396
0.026985111662531012,0.0916584240026377,0.08438864628820966
0.057236217982502294,0.09809502955988607,0.07249786142001713
0.07117474916387947,0.14809006385123782,0.11499129677980845
0.0655602515204618,0.12628023534539118,0.10959639330184638
0.03412795436022829,0.08427686391796625,0.11414773350894529
0.059566973997720915,0.07663157894736844,0.10477424929790455
0.03344044988953603,0.08680958918576406,0.10894396551724138
0.05718312695056888,0.09808637456865012,0.14029753502008907
0.04426719840478562,0.08291976840363934,0.1011354079058031
0.022148502292906727,0.10424791820385791,0.0959305366670154
0.03134371674567084,0.11423494983277584,0.1458512467755803
0.0777263323810462,0.12771879187712606,0.15024708232572817
0.06472428627297619,0.10941320293398543,0.13793103448275865
0.058109027305412536,0.12804309541075312,0.1724991924195111
0.045995619464812856,0.10303273749748951,0.22520914668153927
0.04200878365476424,0.09876170341286623,0.19947246950214317
0.039996181748759047,0.08624127617148561,0.19279614626669586
0.02617015289372485,0.06742121182554406,0.22549568724095453
0.010694698354661678,0.06965270387926853,0.20472869906297658
0.027548209366391182,0.10235444783765146,0.19525742362743004
0.023877307374414493,0.09004692999608911,0.173578947368421
0.029770575382374327,0.09911573219317854,0.19452951737247864
0.02794575774234925,0.06837444052947331,0.17316741608281924
0.022762735199632896,0.06387244605690293,0.1520885028949546
0.024497257769652583,0.06987399770904919,0.1814061347106566
0.00036176177986801353,0.037519932464121566,0.15604096989966545
-0.0006255585344057854,0.02221206581352827,0.1527677559014534
0.0017041887164769211,0.025528007346189173,0.13773431132844347
-0.0015029617186809452,0.037193498025530326,0.1699989640526261
0.018183438809163083,0.03996722505462491,0.14711789515967066
0.027640671273445196,0.049202858713578934,0.15282392026578082
0.029175588865096323,0.05874254245066536,0.15004985044865402
0.04646957779585933,0.05804387568555753,0.1293784759488731
0.042206921219708475,0.0540833860902596,0.12750314404566113
0.0393087392550142,0.03726541554959774,0.1434341444192689
-0.023729413848060852,-0.011032379585612968,0.07802111849824016
-0.009104438413726747,0.0007072761029086579,0.09989311048488972
-0.016679765959304958,0.0036545146626258723,0.07227883058756299
-0.015604681404421302,0.01902539711029337,0.08411304181783466
-0.023844492440604794,0.00811920057102067,0.07856051928216866
-0.03243243243243244,0.01952807160292918,0.05778069599474718
-0.04893598690445415,-0.012876687829741553,0.009049360146252237
0.008888082713585975,-0.003939828080229333,0.021487603305785023
-0.03260005300821625,-0.030458650610943844,0.005601983653228023
-0.03561278863232674,-0.04937406985905629,-0.011380189366351056
-0.043681197710259745,-0.05169854161208629,-0.0050393989371449255
-0.04141959465439413,-0.06103164282618112,-0.005874254245066549
-0.04726434335372882,-0.07179265658747302,-0.017915904936014696
-0.015037593984962376,-0.06709566709566704,-0.016641041873925923
-0.03434016540812651,-0.0745239941414663,-0.04003574620196607
-0.01835616438356169,-0.02512243787411582,-0.035877657188985564
-0.017404917579887654,-0.05733722060252668,-0.056670497745557394
-0.003959848973202015,-0.03943161634103018,-0.035921205098493635
-0.012002585172190907,-0.05759577278731829,-0.03966615812617788
-0.009772896500372275,-0.05841224887158151,-0.05076730906495359
-0.02841901958980965,-0.06322603529307436,-0.04493264623451766
-0.011264196611431836,-0.037865748709122266,-0.05025485111329701
-0.009861382454181673,-0.043239841783531,-0.0470093123209169
0.009934395501405832,-0.015890410958904064,-0.04586506109438634
0.0014792899408283709,-0.0024864167971269014,-0.05173772213954312
0.006447995514437882,-0.008195966479417999,-0.05947078857741684
0.020772629006485514,0.002677499769180981,-0.05851755526657998
0.019310867095797105,0.002233804914370896,-0.06971922246220297
0.01666509744845128,-0.006897820288788743,-0.07353067353067347
0.016630649253030122,0.007261217650344453,-0.06780391143275602
-0.000835189309576869,0.0016745743790120646,-0.02348993288590607
-0.0018463810930575023,0.013308341143392705,-0.044791942751126364
0.0006499535747445977,-0.003605769230769236,-0.04289520426287743
0.02163904235727448,0.03681898887954394,-0.02289740202553936
0.025538632986627043,0.0379734937494126,-0.022656872289583043
0.011668827560659296,0.034078000757288854,-0.03130265141438327
-0.004713493530499123,0.01393465775350724,-0.024458737204456953
-0.005479706510634378,0.006107300573146589,-0.03739661992089174
-0.013873473917869033,-0.010579064587973279,-0.02630136986301366
-0.007516006309733714,-0.012555391432791723,-0.015010590293765629
-0.024966200991437548,0.0044568245125348556,-0.0037756699511925277
-0.018201575658788417,-0.0016574585635358437,0.0010156033607238428
-0.010801904064445192,0.00352897473997024,0.005770662695457973
0.0011143095923484498,-0.001574365623263583,-0.008461326220914207
0.038662682106836016,0.027911275415896452,0.03537516291193443
-0.036484712061526925,-0.0458809324788706,-0.04428318913387284
-0.07731862378459234,-0.08721790603033672,-0.0750702905342081
-0.07043815862451473,-0.06690173517676527,-0.07026627218934907
-0.05469470577384253,-0.07625056331680945,-0.04223904308008607
-0.036183601702757695,-0.05686860454586617,-0.021054610395713835
-0.03051664966144148,-0.04320761625778102,-0.01060204468004548
-0.07705448660312887,-0.04680100287863304,-0.03351850108276046
0.002336221162269978,-0.03838251774374299,-0.03250963074321157
0.04397608673624484,-0.03367098105421125,-0.0438938381588716
0.05727923627684955,-0.005983545250560963,-0.01846381093057607
0.04019904380915216,-0.014512848955444697,-0.010120705663881183
0.04368698991838691,0.0025825493451392834,0.000920810313075585
0.04735935706084963,0.013048306496390862,0.016623328380386253
0.05825621042376999,0.007605973471848559,0.006019633265419443
0.061182868796736886,-0.01753281783851828,0.009889094269870547
0.06085606134135685,0.06395405431714195,0.01513885019039654
0.01937547027840484,0.09818623974060187,0.002404735479097215
0.032079542256823954,0.09417263325377882,0.020970585506170595
-0.00101195952161913,0.05951800175626899,-0.021270842721946816
-0.016625559514022045,0.033605376860297645,-0.02517431857285159
-0.018779342723004622,0.019804822043628087,-0.024258513365067663
-0.02297062322686914,0.040038967364831944,-0.008635899340700089
-0.029368709972552552,0.030300087404098324,-0.009245423982069434
-0.026757704373500567,0.02377948170435798,-0.010692177827799668
-0.04835044987730626,-0.015142964635063953,-0.021035901271503368
-0.036099088313841066,-0.018197167245098938,-0.03244592346089855
-0.036785880167208615,-0.046090156393744294,-0.04362663715181704
-0.021202739468993387,-0.046953503242897605,-0.034517860447899354
-0.024915698763581965,-0.04170118751726044,-0.034412392171412745
-0.015552832500707,-0.04420243433696347,-0.0609602589462327
-0.009480470231323474,-0.0440988106129917,0.017034945974885623
-0.0032470633177345927,-0.03699944639232323,0.057553956834532446
0.00019107671730195873,-0.04853221848586752,0.041070007955449434
0.010126338123251973,-0.03545446173680825,0.02195336130354181
-0.0032588900603853486,-0.03399907106363224,-0.001536245799327996
0.0034582132564841446,-0.01998311286236992,-0.0005740528128588048
-0.007564151666028265,-0.029130760584488567,0.00974184120798831
-0.008518376722817769,-0.02356489772834386,0.00602117121491701
-0.005748778384593355,-0.016211604095563215,0.0071823740658060265
0.000382080427930139,0.0001910037245727269,-0.014954853273137596
0.004487301890395254,0.005159071367153836,-0.0131319763624426
0.02355995768823928,0.02652136175137429,-0.020791168353265915
0.018475971663794822,0.0197450397776287,-0.028135562254498935
0.029908345393149967,0.02545629202689727,-0.01730645309767095
0.02085143353605557,0.012543086939869804,-0.03221378237393609
0.03690854774983134,0.029862174578866675,-0.015553522415370566
0.024348324262388973,0.027881575165277346,-0.010149474072707089
0.006368215949054289,0.011366892730919837,-0.037716986276470105
-0.004321683577602347,0.011838839029979084,-0.024035362372225796
0.006109596766613457,0.029329743244542857,-0.0056665118439386845
0.008149882903981307,0.030250813708596697,0.009663195421709365
0.009267139479905475,0.029715388326097426,-0.0002810041213937911
-0.021375464684014845,0.016507384882710627,-0.007446507682156718
-0.05984340044742731,-0.02804278693263946,-0.04379977246871449
-0.029467321496033157,-0.01881027403800247,-0.018622863145831236
-0.04548027929798082,-0.038494439692044455,-0.03353396388650048
-0.059417040358744386,-0.054114994363021335,-0.029028835953322316
-0.05928266121538756,-0.0484068051508601,-0.02961755966644305
-0.061088728567413195,-0.06126463700234198,-0.03736791546589818
-0.040075973409306735,-0.04416075650118205,-0.03217158176943699
0.003965893317469817,-0.05892193308550176,-0.03081929555895864
-0.0029194239003504413,-0.04492915734526479,-0.018300277857622026
0.019572953736654845,-0.02587835285228556,-0.014805616582290545
0.02572506952721483,-0.025570862426873068,-0.014034752721023476
0.00888976689055715,-0.045777279521674194,-0.01779017213193571
0.022353058576988417,-0.048039397881434694,-0.01924181504882243
0.024633953304313366,-0.0296074205940224,-0.0007718282682104438
0.007900454276120848,-0.030769230769230722,-0.014769765421372729
0.008783915674409582,0.024786833234186,-0.003951045581574604
0.002908667830133771,0.006617360840794011,-0.012317387568032141
-0.011813692262999893,0.00879794385132464,-0.030035167759718626
-0.005482670843939713,0.008939213349225183,-0.04565952649379932
-0.002537823328452954,0.009383642828921403,-0.03947739449196356
-0.09500820700975177,-0.0646642051691447,-0.12196721311475406
-0.08044287673917311,-0.07152750296794622,-0.11252955082742322
-0.10700464396284833,-0.0884850878925539,-0.14219330855018586
-0.1111755607115236,-0.10267421432754242,-0.14299030574198363
-0.0973052425281724,-0.10684506496024816,-0.12995844352096705
-0.08840322898208312,-0.10332139052967951,-0.1262502358935649
-0.09325765730502007,-0.09281378500097909,-0.13434230194319888
-0.009815427291155464,-0.09409468033186921,-0.13761382642631484
-0.013745338305807054,-0.10630491455054544,-0.13276492082825822
0.0039003250270855843,-0.09210268469527734,-0.12003798670465338
0.004785729823798104,-0.1062306501547988,-0.08407693833035895
0.012158054711246095,-0.09860788863109052,-0.09264305177111726
-0.014902807775377922,-0.10612444879960801,-0.09826018189007511
-0.0015109000647528662,-0.08919078558771414,-0.08104886769964254
0.0058183385411053985,-0.08650552891672378,-0.07793362307388385
0.003349178910976688,-0.00917529072868878,-0.073246183015667
0.005072307360241732,-0.0076718167288225775,-0.0786505738029284
0.0038969473912102127,0.004767063921993475,-0.08413983804068743
-0.009223509223509218,0.004785729823798104,-0.09837985555338667
0.005810129357597031,-0.004016500217108169,-0.11043242195074657
0.0031344574146131244,0.002267818574514125,-0.10128788612375321
0.010712372790573113,0.01823872221023093,-0.07626786763266112
0.0201356735221276,0.020795172933951004,-0.07525622254758427
0.023193385590035552,0.02949438202247195,-0.07994593028869351
0.044533103299547225,0.04543492337578252,-0.05085243974132861
0.0366962546005629,0.0366962546005629,-0.07343266253869972
0.04686648501362395,0.030137280137280162,-0.07144238205723125
0.03684947742700142,0.054922166191624704,-0.05703086722194996
0.0213036565977743,0.04150453955901431,-0.05138806851742468
0.019738230947857344,0.0349223352972684,-0.05460416870535276
-0.0010494280617064594,0.024981156455259966,0.015576656353355315
-0.007019717146691512,0.032857296252550225,0.024933404368673452
0.008875430719432063,0.04183739486737125,0.04680390032502717
0.016033315981259826,0.05639748863390353,0.06145312160104422
0.019744362464927688,0.06953678474114436,0.06524099001302638
0.010273972602739673,0.04891714254929417,0.05129589632829374
0.014387744539902707,0.03868574456809757,0.05763004532700198
0.007773925832545531,0.012560692421363859,0.03361706712638729
-0.009876286516269912,-0.0005247140308533043,0.02895419187554011
-0.021113641068101905,-0.023639929802828596,0.020720915173753525
-0.016395122451070894,0.002297170303852969,0.03907772245074691
-0.019463976357892557,0.0017699115044247965,0.031960531960532
0.00852593733949679,0.02026395095084696,0.076299057224293
0.01438775510204078,0.03165213781652135,0.07447038478166884
0.035129782132805064,0.02784390849808506,0.06373861810391004
0.035804283914321826,0.036348355919739554,0.06223753634112201
0.026115457813491214,0.008940638319991678,0.04209169977450877
0.0018751953328472427,-0.004657420823846024,0.03698511968945446
-0.0012471419663272142,-0.015267957782559781,0.04026845637583892
-0.023018944795274037,-0.022521145419341627,0.04544959128065397
-0.032089327029473876,-0.011607601438109866,0.036741730416980894
-0.03685800604229604,-0.02408163265306122,0.01367249602543727
-0.02818043588443995,-0.0006254560617116884,0.011927380198437932
-0.021123132405976273,-0.002519949601007926,-0.0030433413789485385
-0.015389414578350878,0.0011630365827870527,-0.022504387323216753
-0.0026014568158168575,-0.0014584852588811394,0.0008353346559465208
-0.013031693077564637,-0.01610891706505921,-0.014367516918271686
-0.009457493244647647,-0.029232022815237364,-0.009560428140912415
-0.009201171058134625,-0.046775978271803555,-0.016604400166043944
-0.006467090852195729,-0.040785498489425955,-0.014077217679329256
0.023894736842105222,-0.013988849467815607,0.021851034772560125
0.009821522864082869,-0.014734672849046808,-0.0059257719097618585
-0.002712571726656139,-0.006030986794218553,-0.010660318774580844
0.017745854019224596,0.0026014568158168575,-0.012706219899579967
0.01133144475920678,0.004899916597164292,-0.017731580556404718
0.019734065006331684,0.0042610683849511185,-0.007395993836671792
0.01700787401574808,0.01286072772898373,-0.011530612244897914
-0.009766628970905756,0.004693856263690295,0.004065464401125678
0.0036603221083454747,0.010210526315789462,0.007664846703065981
0.011507479861910181,0.021121554546414616,0.022309156269824482
0.01193565127140639,0.017214397496087698,0.015730805292217993
0.027077497665732954,0.045737826132882624,0.028892122219912712
0.03735899824071199,0.05172594691008281,0.02098187003463015
0.050892949313512875,0.07429295061207251,0.02404184689669048
0.04941860465116285,0.06120734908136481,0.017925478348439085
0.061269146608315055,0.04708543230184022,0.03243791180942715
0.05512462509049538,0.06693160426688968,0.051210716125708385
0.04646153846153847,0.06737106391881993,0.06093376312779453
0.010202020202020254,0.037986507524649826,0.04068678459937577
0.003192338387869188,0.0432617491441021,0.04837364470391994
-0.011984282907662071,0.04087757425230263,0.045312824776553726
-0.001385041551246543,0.04201507174563841,0.05541614387285652
-0.018949435444280734,0.03737541528239212,0.042244706373213696
-0.019702019211919143,0.04209648848598527,0.052736842105263214
-0.0189160050965403,0.03526734926052329,0.0571338050480515
0.0011998800119987034,0.026974358974358927,0.0446531038080334
-0.00019888623707235503,0.01555555555555562,0.062004858983838645
0.0022867369258302247,0.0056863527533919335,0.0577064316441087
0.006241331484049885,-0.0022593320235756776,0.07186576614605306
0.01581265012009606,0.004155124653739629,0.06561679790026247
0.01759824017598231,-0.0007854688267059234,0.04626297933586923
0.02267732267732278,0.003430699862772089,0.0705919263752353
0.02866273844002801,0.009507007742820728,0.07751856888795895
0.022578078376765426,0.027997200279971973,0.06704722366372609
0.01775617498264053,0.02028639618138417,0.06442577030812319
0.01713104263069813,0.027142573076158322,0.06912966987478017
0.009359605911330077,0.01495938181097687,0.057602973056673876
0.006485211751989887,0.02512009607686154,0.06343438538205995
0.008987007912474374,0.03279672032796721,0.07627383557361683
-0.0060194174757282,0.02277722277722279,0.05884786430861514
-0.007295010213014298,0.01927494257465302,0.04676923076923079
-0.013645224171539879,0.006564551422319441,0.02222222222222225
-0.024489400832446048,-0.0002975895248487366,0.005387071029529193
0.0427525622254758,0.051786944964064247,0.04941060903732811
0.004881382407497803,0.014088669950738984,0.018302334784329327
-0.011617775196049984,0.003144345091873906,0.00235640648011791
0.002930259816370496,0.0030282309270294253,0.006469319741227317
-0.0032333921222809942,-0.012330097087378603,-0.002940311673037314
0.0280632411067194,0.011963816749343487,0.040295970402959715
0.02818019448303238,0.009941520467836357,0.030429594272076393
-0.02190395956192084,0.011421933985093337,0.03887452773911311
0.02564849897988911,0.030453879941434753,0.045868832970081194
0.023410716034871198,0.020013667870740964,0.045636509207365915
0.015290222049084467,0.009294220156839905,0.042395760423957554
0.028408532389658906,0.02187927329556563,0.04515484515484526
-0.0024029219530949633,0.01695081324710958,0.03655248177369431
0.0019301293186642407,0.02588932806324101,0.03262383131092089
0.0045937410278495934,0.0415757094661639,0.04126574744568988
0.001894477597802433,-0.009922306468220558,0.04135079255685737
0.0071784073506891265,0.022345283202176207,0.036748768472906444
0.007961630695443629,0.029287883240278135,0.032524319544069986
0.0043968648441979905,0.023373587845734237,0.026472599394353754
0.009442142788322476,0.02988302369016015,0.01718446601941744
0.011365825467154757,0.0092272202998846,0.021301429822001727
0.002857959416976252,0.01592356687898081,0.026023391812865514
0.002647253474520196,0.014929658340511076,0.02652211789758973
0.005321676328043355,0.0020839253575827706,0.03260126891166426
0.009326227636086828,0.015122511485451745,0.035438836278434006
-0.00019033117624663135,0.007769784172661893,0.017136218414173645
-0.0033406509496992872,-0.0019116803670426576,0.01992576675131868
0.00371428571428572,0.015415743327873535,0.03262786596119928
-0.005034672746271503,0.00886149104218842,0.03498023715415012
-0.009900990099009875,0.00028579594169763874,0.041873387576900165
0.005482559788259744,0.005672686016829049,-0.0043059065805484764
-0.0011314350367716815,0.006747125344483453,0.029243174973282722
0.028079192842185446,0.027883517320137104,0.05798804976001569
0.06129094043286718,0.05462504758279401,0.0792754187767821
0.04829680235316447,0.054500334065095045,0.08601199252924407
0.06253580294061496,0.05990476190476197,0.06968473663975394
0.04609523809523813,0.04341217820841652,0.06002702181046129
0.02904954404437331,0.032154644035832125,0.04756436022585893
0.033320747592977165,0.03478589658757909,0.03694231315714697
0.011017498379779628,0.02960588346219122,0.045176110260336896
-0.008391987005955538,0.045973729297544244,0.05410071942446044
0.0007241129616219976,0.05880099597778204,0.0567769069011661
-0.02569862521340641,0.028845241484011824,0.04470565565083342
-0.018117261471230963,0.02969257208325377,0.03881718358697747
-0.014708569340398315,0.02714285714285709,0.027436410402972233
-0.01836119484790358,0.01024725016451997,0.01597806561406824
-0.019047619047619032,0.011138380215216225,0.017960657607146255
-0.017381017381017348,-0.00027775205999445545,0.02759802055576709
-0.028491316931982685,-0.030770619021837184,0.022173582032736946
-0.027206492668080815,-0.04525706010137581,0.006776749069390168
-0.022809457579972128,-0.05301464641926503,0.00371428571428572
-0.010384793694946597,-0.028313911143481422,0.013869098508597017
-0.009678019728270912,-0.027772702357025326,0.003488920320603532
-0.003920836445108306,-0.025303736183429213,0.00860194725399373
-0.009631413224671292,-0.020695970695970744,0.00829719026965864
-0.004655060050274649,-0.027118027118027153,0.017608985341709446
0.016685627607129227,-0.030028943560057954,0.027006320628232074
0.010342537242622673,-0.0179839527805958,0.010342537242622673
-0.0034666916518317674,-0.013815484469170096,0.015466870345617764
0.025747040030069487,0.012146499768196591,0.03961904761904759
0.03486410496719774,0.02754513307277134,0.03807464510670299
0.013278473910604093,0.011575802837938713,0.022843118746460278
0.013749883079225507,0.00370438970179655,0.0034256087399313984
0.005688176053711296,0.00409645284424167,-0.026800216567406596
0.013523666416228378,0.02313234736442925,-0.023171614771904436
0.03356525009402038,0.043078090900465,-0.012220325276305143
0.008977647489923085,0.03194977981823289,0.0027312454479242274
0.010414779931171812,0.04839315918060507,0.01927644801754065
0.028977482465854566,0.04498594189315836,0.01854389330410159
0.027126776157962704,0.04095754628763788,0.019413919413919324
0.03069077422345853,0.03975306332429146,0.011557011557011521
0.029558932542624143,0.03608728086534879,0.0049746743849493225
0.007732193213863315,0.040383170548459774,0.02167296873558973
0.004902850917014766,0.04061677322301624,0.02624014835419576
-0.008962982880702698,0.012916819347746397,0.025220213259156226
-0.007354260089686038,0.0023546458974823864,0.029964638004839134
-0.0044915558749550845,0.022702104097452876,0.034540702016430065
-0.0060273479668945815,0.019468536630374605,0.02324504537877376
-0.0003600036000360566,0.02985628187297171,0.0340750395680104
-0.010200397183607109,0.01603039288361753,0.0395335608646189
-0.006505240332490179,0.0002729009369597646,0.04336274788879394
0.00036176177986801353,0.004267296168512792,0.03635341515974885
0.0,-0.00797705476382528,0.040030069535801585
-0.006948204295253529,-0.013004484304932762,0.031396438612933404
0.004615802335052993,-0.002874595759971193,0.037965214138769424
-0.0008102998109299469,-0.001619287513493996,0.0380694041717333
0.012038303693570389,-0.0012600126001260064,0.034781797836628166
0.01709712622771926,0.009568514172233275,0.050338091660405704
0.016182985263538615,0.015540296349837357,0.05678826626551341
0.019154318756776204,0.020168219227638638,0.03334554781971419
0.026442526124488837,0.02059992771955174,0.023003079152327403
0.017567567567567593,0.019220357336220985,0.042358803986711
0.023607857271580376,0.028147343651009137,0.048163867872301154
-0.03829863927187528,-0.03916449086161875,-0.010477515067222953
-0.048909155937052924,-0.029913360693114465,-0.01436249073387692
-0.06236654804270467,-0.041560567479083245,-0.0412990084599291
-0.0504432624113475,-0.031642708615857516,-0.02751044125658254
-0.05497521246458918,-0.03550777014817498,-0.043201577484986944
-0.060203629924745435,-0.03543843707405717,-0.04798206278026901
-0.06663732394366191,-0.04477477477477476,-0.047520661157024725
-0.013774362818590694,-0.051630924490899295,-0.05316660669305503
-0.012785559838300266,-0.053708209425970925,-0.054900549005490004
0.007780624347661004,-0.05033977110157376,-0.04125293374255287
-0.022780319297918006,-0.0687722419928826,-0.05430068666425736
-0.016299765807962482,-0.06906028368794319,-0.05028488740164591
-0.009514837494112154,-0.06922804532577898,-0.05005421033610414
-0.024804300669621762,-0.08455068614431162,-0.06695542320880697
-0.017862232779097344,-0.09005281690140836,-0.06444022083446457
-0.03504428149700035,-0.050505997001499256,-0.08769244620509585
-0.0515958949251482,-0.05302246874118643,-0.0813497492020064
-0.020158593675360652,-0.026852642565708306,-0.06729719898144773
-0.01971240834206273,-0.03893193912799927,-0.0693427357381792
-0.013315579227696458,-0.028196721311475458,-0.06270328876039041
-0.0069632495164409945,-0.032689590202543556,-0.06696955929123118
-0.012479442778369026,-0.03725360746958411,-0.08036036036036037
0.010460870423369212,-0.027173396674584318,-0.07740133357361689
0.0378238856348655,-0.0044757642129320905,-0.057943588357213596
0.0104329173166926,-0.02429149797570849,-0.07340844062947074
0.007480085486691238,-0.00917168243049592,-0.07731316725978658
-0.00019278966647383864,-0.012284544329111573,-0.08049645390070921
0.014316322555512259,-0.009416016739585266,-0.07799220963172794
0.01743730407523512,0.004448742746615026,-0.08047808764940242
0.013868541849790035,0.004256554125955284,-0.08617957746478867
-0.002104457623876153,0.029507549590447005,-0.02248875562218896
0.009263726720061835,0.038320262086766595,-0.016734041553069484
-0.0026034133641885645,0.008580343213728504,-0.018502704241389153
0.004627844195912109,0.012240139887313048,-0.027168331621697288
-0.0013442150744119113,0.0026026604973974385,-0.025667447306791522
-0.002599653379549355,0.008862485391507562,-0.024116815826660407
0.02013293517002219,0.03742163009404396,-0.0012260680939356356
0.022718558282208635,0.041996288700068336,0.013681710213776701
0.004493737450999128,0.00497417256552512,0.00047614512903530287
0.029389017788089774,0.02750168870018343,0.00254213350908587
0.020153550863723554,0.024973483752772186,0.015572752460112691
0.026824343813094818,0.029695333590435774,0.017045995619464738
0.045853846896418575,0.04023043686989916,0.030435609663306096
0.027478753541076453,0.047660311958405574,0.05232108317214697
0.021557784234698632,0.04989885367498307,0.05436780497242904
0.035217970683419024,0.04256134969325165,0.07332478042040863
0.025169045830202786,0.04369442585333199,0.08368906979052906
0.020790216368767715,0.049013921113689164,0.058014820592823736
0.011142322097378256,0.036372360844529675,0.049057703516611595
0.004707402621377062,0.04653398711662329,0.049257759784075573
-0.001378549765646592,0.04894294816101934,0.058239189715621247
0.018442058904486698,0.048158640226628836,0.08738244514106584
0.02969841853622646,0.049676633236479494,0.09375915616759443
0.02839868083547095,0.0685322672758424,0.07384733116510425
0.041655146991060696,0.06151389932381665,0.0907073241339381
0.04898601722381708,0.06566321730950145,0.09227654035290722
0.0348185576481397,0.05468164794007494,0.086000771307366
0.03423522915516288,0.03729001292228163,0.07902064330292836
0.012702702702702672,0.0330851943755169,0.0823223570190641
0.012590409858023136,0.04046242774566484,0.09238031018206341
0.011045786566898226,0.04358219933799186,0.08799846625766879
0.0012386092187914764,0.036735067790399464,0.08203461133951619
-0.002824858757062212,0.04101004515712827,0.09203402938901775
0.002130681818181773,0.045281970552828975,0.08330134357005751
0.017173874354867474,0.05016077170418014,0.09902893952504564
0.04759363045992357,0.0837474691698878,0.1367892653731055
0.030776014109347397,0.05306306306306307,0.10377714825306888
0.03471365638766518,0.04866505938030184,0.10075920892304809
0.0405584518865424,0.04899340815962943,0.120883304778222
0.05054886685552415,0.04989825709988499,0.11448159278737789
0.04473777462792356,0.04104872881355937,0.10940733772342437
0.01618406088706145,0.031249999999999965,0.08764044943820225
-0.01290760869565226,0.034347748709734824,0.07291858962525374
-0.008298400205321233,0.031224979983987235,0.06534325889164598
-0.010899182561307912,0.024338624338624257,0.06578585191301956
-0.010444972826086989,0.02669603524229076,0.07144170650974618
-0.01963427993595684,0.0280109569673942,0.06577500916086484
-0.01348257440854747,0.02992209631728054,0.07215924799557642
-0.0003443526170798213,0.028703047484053945,0.0752847485878323
-0.009549208534067443,0.0071734756364271995,0.057694074414331664
-0.010783298826777088,-0.026239809782608724,0.05531014172648634
-0.01386019283746556,-0.02001882111386777,0.031981981981981954
-0.018707628936754542,-0.026311307901907388,0.021073310116974726
-0.025356713082344873,-0.037109375000000035,0.010065918403705642
-0.02002750558707236,-0.03926855987191368,0.008670264531540335
-0.019720978298312142,-0.03476638683965071,0.00485522598870054
-0.00217145835142882,-0.011019283746556485,0.01988636363636359
0.005842853405424276,-0.007742601514108667,0.02633920626445994
0.0062854648625054466,-0.0056073153899241345,0.025442576283248818
0.01530389156099694,-0.0005165289256198543,0.023809523809523708
0.02169503483552336,-0.005835407191281274,0.020704845814977925
0.029207964213665453,0.008595495960116899,0.03684722099496334
0.027936396380567573,0.005758982293278337,0.035853399433427864
0.01714832869080779,0.006286600068894159,0.03517009213323883
0.005115311253684788,0.0069486667245723215,0.014171988452453894
0.01986640062462051,0.02520275573384495,-0.0016983695652174153
0.005598621877691694,0.01920558707987781,-0.001197707246128844
0.0029348295209322695,0.016090948841276813,-0.010643732970027249
-0.010482358956877484,0.023988005997001488,-0.014011548913043527
-0.0093154431245193,0.016752916410841125,-0.023173506362180837
-0.01001283697047486,0.016252306070456017,-0.01907911472907657
-0.0003450357974640408,0.008791782729805058,-0.002324380165289222
-0.01114324600204153,0.007889717357378156,8.602890571236335e-05
-0.025096359743040742,-0.012579161967554462,-0.01811594202898558
-0.009467251914966815,-0.008699397071490016,-0.009211432506886994
0.00017225045215740265,0.002416918429003031,-0.003432592465459587
0.0033643892339544563,-0.008777910346003077,-0.00025786487880351673
0.004149377593360907,-0.007264336381505926,-0.0015471892728211004
0.002502372939856815,-0.005733846812152226,0.000516706854977629
-0.000516129032258084,0.0022427326835158363,0.009206983410058215
0.02161307327358995,-0.010888057162300112,0.01404028952646725
0.012164393083673572,-0.0022269807280514355,0.01693583587952857
0.008955480926547889,0.008434460796970513,0.024661128115435135
0.00438483363425321,0.006114891051588957,0.030249581091806973
0.01584022038567496,0.01794340924775706,0.03499693009385137
0.017300740230676456,0.021697786998616794,0.038302732144425894
0.011016438591961452,0.01363361808611613,0.022545264623955463
0.02270381836945305,0.022967741935483885,0.031038668285070212
0.01914327410078122,0.0430504305043051,0.02992973019866403
0.008961338226508467,0.027196107394213184,0.018260120585702023
-0.0017976373908576765,0.004133298889175958,0.006560207164436816
-0.0036440677966102274,0.010833118390508047,0.001960115902505452
-0.00016921905406545412,0.017303719008264506,0.00991368259123149
-0.007065633778837135,0.003959373386124924,-0.0017971758664954535
-0.037167843928691574,-0.014545141578449073,-0.01233502975933759
-0.0026111859838275123,0.018317853457172302,0.007230350459339863
0.001860937235662315,0.016739634303373704,0.014475374732334028
0.00145785095617873,-0.0033284970555603017,0.0050778896634822565
-0.0027217827677127942,0.003680876562232553,0.009818275772973908
0.0065160362190064824,0.007966101694915234,0.02605244996549341
0.030606995884773603,0.017091124460614233,0.03915975103734428
0.06087336244541484,0.034051247126926025,0.04814910691172662
0.009796469892745517,0.005465859401278098,0.028559139784946178
-0.0007598784194529164,-0.0031165768194070464,0.03979968371112284
0.016698064737112543,0.004313990864489977,0.03162742201755148
0.003155650319829463,0.008661349798473588,0.012830448635150342
-0.02799730956784932,-0.016670919452241167,-0.006018399105837871
-0.06846352216953656,-0.052382161293052364,-0.035984848484848425
-0.06182596525891171,-0.02297668038408785,-0.01910828025477718
-0.045496361963703255,-0.0032314410480349743,-0.017729580858937968
