1,69.44
2,69.675
3,68.225
4,69.555
5,69.5
6,69.695
7,67.855
8,65.755
9,65.04
10,66.16
11,65.15
12,66.34
13,67.33
14,67.33
15,67.405
16,67.795
17,68.11
18,67.725
19,67.735
20,68.67
21,68.89
22,69.57
23,70.76
24,71.115
25,70.65
26,70.55
27,70.435
28,70.505
29,68.645
30,67.985
31,66.945
32,67.02
33,66.71
34,66.97
35,67.08
36,66.845
37,66.36
38,66.95
39,65.865
40,65.725
41,66.325
42,67.33
43,68.805
44,68.125
45,65.72
46,67.275
47,66.2
48,70.325
49,70.795
50,71.775
51,72.4
52,72.49
53,73.455
54,72.465
55,73.51
56,73.57
57,72.6
58,74.24
59,76.14
60,75.88
61,76.61
62,77.57
63,76.96
64,77.065
65,76.605
66,78.405
67,78.235
68,77.775
69,79.42
70,78.53
71,79.47
72,78.775
73,78.43
74,78.415
75,78.665
76,78.55
77,78.155
78,76.805
79,77.57
80,76.78
81,74.995
82,75.635
83,77.46
84,77.135
85,75.95
86,75.475
87,77.635
88,76.915
89,78.055
90,78.285
91,77.085
92,75.04
93,74.45
94,73.34
95,73.915
96,74.5
97,74.515
98,73.205
99,74.22
100,74.54
101,74.795
102,76.21
103,76.615
104,78.265
105,78.02
106,79.015
107,78.865
108,78.495
109,77.42
110,78.43
111,80.0
112,79.58
113,79.865
114,79.565
115,78.54
116,79.365
117,78.555
118,80.585
119,80.525
120,80.22
121,81.38
122,81.18
123,80.945
124,80.71
125,80.545
126,80.915
127,80.845
128,80.67
129,81.38
130,81.185
131,79.385
132,79.295
133,78.405
134,79.485
135,79.555
136,80.075
137,81.12
138,80.135
139,78.88
140,77.88
141,78.095
142,78.105
143,78.605
144,79.47
145,80.285
146,79.625
147,80.82
148,81.855
149,82.21
150,81.435
151,81.22
152,82.6
153,82.68
154,83.905
155,83.995
156,83.14
157,81.71
158,81.735
159,82.32
160,83.325
161,82.635
162,83.53
163,83.405
164,83.32
165,83.245
166,85.45
167,83.955
168,81.405
169,81.24
170,82.365
171,83.375
172,83.065
173,82.74
174,83.11
175,87.235
176,87.885
177,88.305
178,90.06
179,89.225
180,89.73
181,90.96
182,90.445
183,92.755
184,90.83
185,91.29
186,91.375
187,91.73
188,91.66
189,91.4
190,89.82
191,90.785
192,91.08
193,91.255
194,92.31
195,92.79
196,92.45
197,92.325
198,92.38
199,91.1
200,91.66
201,91.89
202,92.095
203,92.565
204,92.27
205,92.03
206,91.83
207,90.83
208,91.475
209,90.89
210,93.92
211,93.355
212,93.675
213,91.175
214,91.96
215,91.455
216,91.2
217,91.805
218,92.615
219,92.65
220,93.31
221,92.75
222,93.79
223,94.04
224,93.89
225,94.235
226,94.83
227,94.47
228,94.705
229,93.76
230,94.14
231,94.735
232,95.065
233,95.29
234,93.88
235,95.445
236,95.35
237,93.835
238,94.74
239,95.0
240,93.58
241,93.445
242,90.8
243,91.595
244,91.215
245,91.6
246,92.335
247,91.18
248,88.435
249,88.62
250,88.61
251,89.46
252,91.27
253,91.965
254,92.58
255,92.88
256,93.615
257,94.45
258,93.295
259,93.53
260,94.375
261,94.935
262,94.26
263,95.385
264,96.565
265,96.845
266,98.91
267,98.53
268,100.095
269,99.77
270,100.07
271,100.035
272,100.15
273,98.755
274,98.605
275,97.455
276,97.29
277,97.98
278,98.98
279,97.58
280,97.37
281,97.56
282,96.605
283,96.435
284,95.205
285,94.765
286,95.405
287,96.73
288,98.32
289,98.63
290,98.685
291,98.88
292,96.535
293,96.25
294,97.845
295,94.98
296,93.91
297,94.28
298,94.265
299,95.815
300,99.73
301,98.27
302,98.18
303,98.15
304,97.255
305,96.49
306,95.735
307,96.5
308,96.81
309,96.32
310,97.59
311,97.945
312,97.735
313,99.37
314,98.14
315,98.31
316,99.705
317,98.865
318,98.28
319,97.315
320,97.68
321,98.02
322,97.845
323,98.585
324,98.175
325,99.43
326,99.06
327,100.125
328,100.5
329,100.805
330,101.165
331,100.86
332,101.93
333,101.575
334,102.465
335,102.555
336,102.9
337,102.8
338,101.79
339,102.135
340,101.51
341,101.255
342,101.795
343,101.61
344,102.285
345,102.185
346,101.515
347,102.235
348,101.29
349,102.025
350,105.075
351,104.43
352,104.155
353,105.08
354,104.19
355,103.4
356,103.91
357,103.695
358,104.015
359,103.995
360,102.78
361,102.895
362,103.85
363,104.775
364,104.375
365,105.055
366,105.155
367,105.01
368,104.435
369,104.335
370,102.495
371,102.215
372,99.18
373,99.195
374,100.31
375,99.105
376,99.445
377,98.66
378,100.11
379,99.59
380,99.765
381,101.005
382,100.785
383,101.135
384,101.885
385,102.315
386,102.04
387,102.54
388,102.275
389,103.115
390,101.765
391,102.62
392,102.72
393,102.93
394,102.595
395,101.765
396,101.81
397,101.98
398,101.96
399,100.73
400,101.23
401,100.71
402,99.84
403,99.855
404,100.26
405,100.915
406,101.58
407,101.405
408,99.84
409,99.14
410,100.27
411,98.705
412,99.225
413,99.73
414,98.37
415,95.585
416,95.585
417,95.925
418,95.635
419,93.21
420,94.765
421,93.015
422,91.775
423,88.295
424,88.79
425,90.25
426,90.915
427,93.625
428,95.59
429,98.02
430,96.855
431,97.45
432,97.925
433,96.3
434,97.695
435,96.025
436,101.95
437,101.845
438,100.185
439,99.235
440,102.625
441,103.045
442,103.45
443,103.135
444,102.63
445,101.95
446,102.615
447,101.95
448,102.665
449,104.25
450,105.33
451,106.33
452,107.675
453,107.785
454,107.7
455,108.475
456,109.41
457,109.935
458,109.565
459,111.63
460,111.855
461,111.425
462,111.42
463,112.845
464,110.425
465,111.3
466,109.91
467,109.055
468,108.33
469,111.13
470,113.505
471,113.95
472,114.8
473,115.535
474,115.56
475,115.795
476,116.23
477,115.83
478,115.575
479,114.7
480,111.74
481,111.465
482,111.96
483,114.94
484,113.485
485,113.125
486,113.495
487,113.485
488,113.1
489,115.19
490,114.08
491,114.015
492,115.675
493,113.905
494,113.91
495,112.98
496,110.87
497,112.855
498,111.44
499,111.865
500,113.45
501,113.725
502,115.185
503,115.43
504,113.41
505,114.12
506,114.11
507,116.515
508,118.385
509,117.925
510,118.12
511,117.75
512,118.32
513,118.245
514,118.385
515,117.835
516,117.92
517,117.69
518,118.85
519,117.27
520,117.67
521,117.725
522,115.985
523,116.145
524,113.835
525,112.59
526,114.85
527,113.955
528,115.04
529,113.63
530,114.82
531,113.085
532,114.53
533,113.215
534,112.745
535,111.23
536,110.65
537,111.48
538,112.245
539,112.77
540,112.23
541,111.79
542,112.11
543,112.45
544,113.065
545,114.17
546,114.75
547,114.795
548,113.98
549,113.635
550,113.375
551,113.305
552,113.84
553,113.525
554,113.2
555,112.94
556,111.655
557,110.425
558,110.38
559,111.085
560,110.78
561,112.275
562,112.515
563,110.79
564,111.025
565,112.455
566,114.525
567,113.665
568,112.245
569,112.7
570,114.4
571,115.85
572,115.465
573,114.995
574,114.465
575,114.615
576,114.595
577,113.36
578,114.57
579,114.91
580,114.445
581,114.515
582,114.125
583,114.995
584,114.385
585,114.315
586,114.05
587,114.625
588,115.94
589,116.995
590,116.625
591,115.43
592,116.0
593,116.67
594,117.81
595,117.3
596,118.17
597,118.29
598,117.97
599,117.74
600,118.01
601,114.98
602,114.72
603,116.5
604,115.91
605,115.1
606,115.06
607,113.1
608,112.64
609,114.9
610,116.53
611,117.61
612,116.98
613,111.82
614,111.8
615,110.85
616,108.21
617,108.09
618,105.63
619,103.25
620,102.39
621,106.92
622,108.57
623,108.52
624,108.38
625,107.87
626,106.54
627,106.59
628,105.21
629,103.92
630,106.61
631,104.41
632,104.03
633,103.52
634,104.7
635,104.26
636,104.57
637,102.5
638,99.87
639,97.21
640,92.26
641,91.05
642,93.1
643,95.19
644,96.11
645,95.29
646,91.35
647,93.53
648,93.98
649,93.31
650,96.4
651,96.1
652,96.64
653,96.72
654,94.16
655,94.28
656,95.07
657,94.46
658,93.19
659,93.45
660,91.62
661,89.94
662,88.11
663,88.34
664,84.51
665,85.95
666,87.69
667,90.13
668,92.66
669,94.59
670,93.4
671,94.31
672,95.77
673,95.97
674,97.34
675,97.18
676,97.32
677,99.26
678,100.74
679,101.18
680,101.38
681,100.64
682,103.62
683,103.99
684,103.93
685,102.93
686,104.33
687,104.28
688,104.26
689,104.0
690,104.19
691,103.86
692,103.21
693,103.0
694,101.73
695,101.12
696,101.61
697,99.21
698,100.83
699,101.95
700,101.71
701,104.23
702,103.37
703,104.62
704,105.47
705,105.49
706,106.46
707,106.21
708,105.74
709,106.76
710,105.34
711,104.3
712,105.96
713,104.99
714,102.75
715,101.55
716,100.88
717,98.73
718,97.73
719,98.55
720,100.22
721,98.24
722,96.29
723,97.23
724,98.76
725,100.24
726,100.39
727,99.9
728,100.58
729,99.77
730,98.82
731,97.96
732,98.31
733,96.47
734,95.25
735,94.49
736,94.45
737,95.12
738,93.05
739,93.57
740,91.9
741,91.6
742,93.52
743,91.92
744,93.16
745,91.11
746,92.58
747,92.8
748,92.09
749,95.12
750,95.59
751,93.04
752,95.11
753,95.7
754,92.87
755,89.65
756,90.99
757,91.34
758,89.27
759,91.78
760,93.62
761,95.0
762,94.69
763,95.63
764,96.72
765,94.87
766,95.68
767,97.01
768,98.16
769,96.53
770,99.58
771,99.33
772,100.3
773,102.49
774,103.37
775,101.51
776,102.28
777,102.91
778,105.01
779,104.74
780,104.76
781,106.61
782,109.4
783,108.9
784,108.89
785,109.84
786,109.14
787,108.95
788,109.4
789,110.57
790,111.9
791,111.49
792,113.11
793,112.19
794,111.43
795,112.08
796,110.61
797,111.83
798,111.68
799,112.94
800,114.23
801,114.51
802,115.35
803,115.75
804,116.55
805,116.07
806,110.26
807,113.19
808,112.6
809,113.55
810,112.99
811,112.77
812,110.39
813,111.24
814,109.5
815,108.59
816,108.59
817,108.31
818,107.44
819,108.73
820,107.42
821,107.49
822,106.7
823,108.16
824,107.01
825,106.39
826,105.64
827,106.21
828,106.43
829,107.76
830,108.32
831,107.7
832,108.6
833,107.68
834,107.98
835,108.2
836,107.67
837,108.12
838,107.77
839,110.95
840,110.43
841,109.24
842,107.69
843,107.08
844,106.62
845,106.96
846,108.18
847,108.42
848,108.06
849,107.81
850,111.22
851,102.73
852,98.69
853,100.56
854,102.49
855,104.15
856,104.52
857,102.65
858,102.97
859,103.03
860,106.32
861,106.61
862,108.7
863,109.47
864,108.63
865,109.27
866,109.3
867,108.38
868,110.03
869,108.59
870,107.65
871,106.59
872,106.76
873,106.09
874,105.48
875,104.71
876,104.67
877,103.69
878,104.33
879,104.1
880,104.44
881,104.48
882,104.37
883,104.69
884,104.74
885,103.99
886,104.46
887,103.65
888,103.59
889,103.77
890,104.73
891,105.21
892,106.44
893,106.39
894,106.75
895,105.75
896,107.6
897,107.28
898,105.88
899,105.98
900,107.04
901,107.62
902,106.73
903,105.3
904,100.86
905,102.76
906,101.16
907,100.68
908,101.24
909,100.21
910,101.08
911,101.26
912,102.46
913,103.14
914,103.27
915,102.14
916,102.45
917,103.57
918,102.06
919,103.36
920,103.44
921,102.05
922,101.58
923,102.19
924,93.73
925,93.85
926,92.3
927,91.94
928,92.12
929,92.6
930,92.66
931,92.81
932,92.56
933,92.66
934,92.38
935,93.24
936,91.22
937,92.52
938,93.35
939,92.87
940,93.13
941,92.74
942,92.38
943,91.75
944,92.81
945,94.35
946,94.74
947,95.29
948,96.87
949,95.77
950,96.05
951,96.23
952,96.36
953,96.61
954,95.19
955,96.19
956,96.62
957,97.59
958,98.13
959,97.35
960,98.0
961,95.93
962,95.24
963,94.58
964,95.99
965,96.22
966,98.18
967,99.41
968,99.3
969,98.65
970,97.05
971,96.17
972,96.1
973,95.92
974,96.22
975,95.64
976,95.87
977,95.0
978,94.69
979,95.85
980,94.67
981,95.31
982,94.76
983,95.25
984,97.27
985,95.62
986,95.59
987,96.35
988,96.39
989,96.63
990,96.87
991,96.32
992,95.97
993,96.69
994,97.5
995,99.0
996,100.24
997,101.8
998,101.08
999,101.85
1000,102.02
1001,102.03
1002,100.01
1003,100.56
1004,100.58
1005,100.94
1006,99.92
1007,100.01
1008,100.1
1009,100.13
1010,100.54
1011,100.81
1012,101.57
1013,101.5
1014,101.77
1015,102.37
1016,103.0
1017,102.81
1018,102.6
1019,103.31
1020,102.45
1021,102.43
1022,103.29
1023,102.38
1024,102.06
1025,101.2
1026,100.78
1027,106.83
1028,102.93
1029,102.09
1030,102.68
1031,101.73
1032,104.04
1033,103.62
1034,104.49
1035,105.57
1036,104.48
1037,104.25
1038,104.62
1039,103.79
1040,103.82
1041,104.97
1042,105.77
1043,105.23
1044,105.08
1045,105.08
1046,104.77
1047,105.0
1048,105.27
1049,106.05
1050,105.79
1051,106.06
1052,105.06
1053,104.42
1054,105.39
1055,104.74
1056,105.0
1057,106.37
1058,105.94
1059,108.01
1060,110.82
1061,110.48
1062,111.29
1063,109.84
1064,109.46
1065,109.47
1066,109.2
1067,109.89
1068,110.56
1069,108.43
1070,107.85
1071,107.85
1072,107.46
1073,107.12
1074,107.98
1075,107.41
1076,105.48
1077,105.39
1078,106.73
1079,106.42
1080,106.7
1081,106.94
1082,106.91
1083,107.24
1084,106.48
1085,106.36
1086,109.16
1087,110.42
1088,108.36
1089,108.38
1090,107.85
1091,107.92
1092,109.93
1093,110.14
1094,111.57
1095,111.5
1096,111.32
1097,111.16
1098,111.11
1099,110.78
1100,110.68
1101,110.57
1102,110.68
1103,110.82
1104,110.49
1105,111.07
1106,109.65
1107,109.96
1108,110.61
1109,110.68
1110,110.05
1111,111.0
1112,110.98
1113,110.97
1114,111.84
1115,112.4
1116,112.8
1117,112.96
1118,112.95
1119,113.6
1120,106.72
1121,106.37
1122,105.39
1123,107.11
1124,106.75
1125,106.15
1126,106.03
1127,105.25
1128,105.01
1129,106.21
1130,104.67
1131,105.01
1132,105.14
1133,103.4
1134,103.37
1135,101.33
1136,100.73
1137,102.56
1138,102.94
1139,103.74
1140,102.68
1141,102.08
1142,102.39
1143,104.54
1144,103.63
1145,103.71
1146,103.72
1147,104.15
1148,103.86
1149,103.81
1150,104.32
1151,104.59
1152,103.44
1153,104.2
1154,104.01
1155,103.59
1156,105.9
1157,106.69
1158,105.06
1159,106.48
1160,106.3
1161,106.8
1162,108.34
1163,108.81
1164,108.99
1165,108.76
1166,109.16
1167,108.51
1168,107.99
1169,108.85
1170,108.66
1171,111.0
1172,111.99
1173,112.26
1174,113.03
1175,113.28
1176,112.64
1177,112.38
1178,112.41
1179,113.4
1180,113.5
1181,113.17
1182,112.96
1183,112.88
1184,114.31
1185,117.76
1186,116.89
1187,117.44
1188,117.76
1189,118.67
1190,117.93
1191,116.16
1192,116.24
1193,115.92
1194,116.16
1195,116.53
1196,116.34
1197,116.34
1198,116.12
1199,115.13
1200,114.67
1201,114.55
1202,114.35
1203,113.39
1204,114.01
1205,113.83
1206,114.88
1207,115.34
1208,115.27
1209,116.1
1210,115.85
1211,117.34
1212,117.01
1213,116.85
1214,115.93
1215,117.56
1216,116.75
1217,116.19
1218,116.11
1219,115.92
1220,115.68
1221,115.89
1222,116.25
1223,113.82
1224,115.09
1225,116.13
1226,116.31
1227,116.16
1228,116.18
1229,116.19
1230,116.28
1231,116.49
1232,117.17
1233,116.82
1234,118.0
1235,118.19
1236,117.47
1237,118.92
1238,118.72
1239,118.22
1240,116.61
1241,117.57
1242,118.17
1243,116.64
1244,114.5
1245,118.41
1246,118.44
1247,116.78
1248,117.25
1249,118.94
1250,120.21
1251,121.47
1252,119.57
1253,118.35
1254,118.73
1255,117.62
1256,115.61
1257,111.98
1258,113.96
1259,114.13
